Time (s),Potential (V),Current (A),Cycle,Exp,Applied potential (V)
0.0,0.504218339920044,-6.007890624459833e-05,1.0,1.0,0.5
0.00036,0.5042836666107178,-6.310796015895903e-05,1.0,1.0,0.4996397793292999
0.00072,0.5043461918830872,-6.296131323324516e-05,1.0,1.0,0.49927952885627747
0.00108,0.5044029355049133,-6.297526851994917e-05,1.0,1.0,0.4989193081855774
0.00144,0.5044646263122559,-6.283685070229694e-05,1.0,1.0,0.4985590875148773
0.0018000000000000002,0.5045205354690552,-6.287261930992827e-05,1.0,1.0,0.49819883704185486
0.00216,0.5045738220214844,-6.275601481320336e-05,1.0,1.0,0.4978386163711548
0.00252,0.5046290755271912,-6.288155418587849e-05,1.0,1.0,0.4974783957004547
0.00288,0.5046847462654114,-6.287833821261302e-05,1.0,1.0,0.49711814522743225
0.0032400000000000003,0.5047363042831421,-6.28550915280357e-05,1.0,1.0,0.4967579245567322
0.0036000000000000003,0.5047793388366699,-6.302462134044617e-05,1.0,1.0,0.4963977038860321
0.00396,0.5048304796218872,-6.309222226263955e-05,1.0,1.0,0.49603745341300964
0.00432,0.5048746466636658,-6.308899901341647e-05,1.0,1.0,0.49567723274230957
0.00468,0.5049223899841309,-6.294521881500259e-05,1.0,1.0,0.4953170120716095
0.00504,0.5049691796302795,-6.312155164778233e-05,1.0,1.0,0.49495676159858704
0.0054,0.5050135254859924,-6.309329182840884e-05,1.0,1.0,0.49459654092788696
0.00576,0.5050705075263977,-6.311904871836305e-05,1.0,1.0,0.4942363202571869
0.0061200000000000004,0.5051098465919495,-6.33418676443398e-05,1.0,1.0,0.49387606978416443
0.0064800000000000005,0.505146861076355,-6.314694473985583e-05,1.0,1.0,0.49351584911346436
0.006840000000000001,0.5051847100257874,-6.331576150842011e-05,1.0,1.0,0.4931556284427643
0.007200000000000001,0.505223274230957,-6.329001189442351e-05,1.0,1.0,0.4927953779697418
0.007560000000000001,0.5052610635757446,-6.277998181758448e-05,1.0,1.0,0.49243515729904175
0.00792,0.5052890777587891,-6.299099914031103e-05,1.0,1.0,0.4920749366283417
0.008280000000000001,0.5052834153175354,-6.645568646490574e-05,1.0,1.0,0.4917146861553192
0.00864,0.5052748918533325,-6.62296442897059e-05,1.0,1.0,0.49135446548461914
0.009000000000000001,0.5052680969238281,-6.618601037189364e-05,1.0,1.0,0.49099424481391907
0.00936,0.5052599310874939,-6.59481665934436e-05,1.0,1.0,0.4906339943408966
0.009720000000000001,0.5052534341812134,-6.584766379091889e-05,1.0,1.0,0.49027377367019653
0.01008,0.5052440762519836,-6.578793545486405e-05,1.0,1.0,0.48991355299949646
0.010440000000000001,0.505237877368927,-6.56284173601307e-05,1.0,1.0,0.489553302526474
0.0108,0.5051911473274231,-6.901835149619728e-05,1.0,1.0,0.4891930818557739
0.011160000000000002,0.5051409006118774,-6.891963130328804e-05,1.0,1.0,0.48883286118507385
0.01152,0.5050871968269348,-6.864030001452193e-05,1.0,1.0,0.4884726107120514
0.01188,0.5050390362739563,-6.850116915302351e-05,1.0,1.0,0.4881123900413513
0.012240000000000001,0.5049918293952942,-6.801617564633489e-05,1.0,1.0,0.48775216937065125
0.0126,0.5049410462379456,-6.79249715176411e-05,1.0,1.0,0.4873919188976288
0.012960000000000001,0.5048477053642273,-7.138894579838961e-05,1.0,1.0,0.4870316982269287
0.01332,0.5047457218170166,-7.11725588189438e-05,1.0,1.0,0.48667147755622864
0.013680000000000001,0.504648745059967,-7.096296758390963e-05,1.0,1.0,0.4863112270832062
0.01404,0.5045551657676697,-7.075873872963712e-05,1.0,1.0,0.4859510064125061
0.014400000000000001,0.5044620037078857,-7.061853830236942e-05,1.0,1.0,0.48559078574180603
0.01476,0.5043676495552063,-7.038962939986959e-05,1.0,1.0,0.48523053526878357
0.015120000000000001,0.5042751431465149,-7.02487159287557e-05,1.0,1.0,0.4848703145980835
0.01548,0.5041393637657166,-7.353957334998995e-05,1.0,1.0,0.4845100939273834
0.01584,0.5039912462234497,-7.332032691920176e-05,1.0,1.0,0.48414984345436096
0.016200000000000003,0.5038491487503052,-7.300129072973505e-05,1.0,1.0,0.4837896227836609
0.016560000000000002,0.503714382648468,-7.277381519088522e-05,1.0,1.0,0.4834294021129608
0.01692,0.5035778284072876,-7.250342605402693e-05,1.0,1.0,0.48306915163993835
0.01728,0.5034439563751221,-7.241186540341005e-05,1.0,1.0,0.4827089309692383
0.01764,0.5033187866210938,-7.221657870104536e-05,1.0,1.0,0.4823487102985382
0.018000000000000002,0.5031614899635315,-7.537761121056974e-05,1.0,1.0,0.48198845982551575
0.01836,0.5029982924461365,-7.499097409890965e-05,1.0,1.0,0.4816282391548157
0.01872,0.5028399229049683,-7.472451397916302e-05,1.0,1.0,0.4812680184841156
0.01908,0.5026862025260925,-7.436005398631096e-05,1.0,1.0,0.48090776801109314
0.019440000000000002,0.5025339722633362,-7.418229506583884e-05,1.0,1.0,0.48054754734039307
0.0198,0.5023847818374634,-7.385718345176429e-05,1.0,1.0,0.480187326669693
0.02016,0.50223708152771,-7.355066190939397e-05,1.0,1.0,0.47982707619667053
0.02052,0.5020532011985779,-7.636046939296648e-05,1.0,1.0,0.47946685552597046
0.020880000000000003,0.5018594861030579,-7.640946569154039e-05,1.0,1.0,0.4791066348552704
0.021240000000000002,0.5016741752624512,-7.578963413834572e-05,1.0,1.0,0.4787463843822479
0.0216,0.5014955401420593,-7.566194835817441e-05,1.0,1.0,0.47838616371154785
0.02196,0.5013174414634705,-7.537832425441593e-05,1.0,1.0,0.4780259430408478
0.022320000000000003,0.501141369342804,-7.504212408093736e-05,1.0,1.0,0.4776656925678253
0.022680000000000002,0.5009312033653259,-7.812339026713744e-05,1.0,1.0,0.47730547189712524
0.02304,0.5007177591323853,-7.79892725404352e-05,1.0,1.0,0.47694525122642517
0.0234,0.500510036945343,-7.770170486764982e-05,1.0,1.0,0.4765850007534027
0.02376,0.5003079175949097,-7.736944098724052e-05,1.0,1.0,0.47622478008270264
0.024120000000000003,0.500109851360321,-7.705898315180093e-05,1.0,1.0,0.47586455941200256
0.024480000000000002,0.49991118907928467,-7.681649003643543e-05,1.0,1.0,0.4755043089389801
0.02484,0.499719500541687,-7.651998748769984e-05,1.0,1.0,0.47514408826828003
0.0252,0.49949103593826294,-7.95805171946995e-05,1.0,1.0,0.47478386759757996
0.025560000000000003,0.49926263093948364,-7.926290709292516e-05,1.0,1.0,0.4744236171245575
0.025920000000000002,0.4990372359752655,-7.894601731095463e-05,1.0,1.0,0.4740633964538574
0.02628,0.49881187081336975,-7.844529318390414e-05,1.0,1.0,0.47370317578315735
0.02664,0.4985879361629486,-7.850716792745516e-05,1.0,1.0,0.4733429253101349
0.027000000000000003,0.4983714818954468,-7.81545095378533e-05,1.0,1.0,0.4729827046394348
0.027360000000000002,0.49815934896469116,-7.798175647621974e-05,1.0,1.0,0.47262248396873474
0.02772,0.4979589283466339,-7.75003427406773e-05,1.0,1.0,0.4722622334957123
0.02808,0.4977564811706543,-7.725283649051562e-05,1.0,1.0,0.4719020128250122
0.028440000000000003,0.497558057308197,-7.692987128393725e-05,1.0,1.0,0.47154179215431213
0.028800000000000003,0.4973621070384979,-7.650496263522655e-05,1.0,1.0,0.4711815416812897
0.029160000000000002,0.49716705083847046,-7.614264904987067e-05,1.0,1.0,0.4708213210105896
0.02952,0.4969743490219116,-7.568555884063244e-05,1.0,1.0,0.4704611003398895
0.02988,0.4967900216579437,-7.532610470661893e-05,1.0,1.0,0.47010084986686707
0.030240000000000003,0.49661386013031006,-7.491694123018533e-05,1.0,1.0,0.469740629196167
0.030600000000000002,0.4964381754398346,-7.48690144973807e-05,1.0,1.0,0.4693804085254669
0.03096,0.49626752734184265,-7.436363375745714e-05,1.0,1.0,0.46902015805244446
0.03132,0.49609726667404175,-7.429209654219449e-05,1.0,1.0,0.4686599373817444
0.03168,0.4959348738193512,-7.399917376460508e-05,1.0,1.0,0.4682997167110443
0.03204,0.49577420949935913,-7.399237802019343e-05,1.0,1.0,0.46793949604034424
0.032400000000000005,0.4956182539463043,-7.372448453679681e-05,1.0,1.0,0.4675792455673218
0.032760000000000004,0.4954668879508972,-7.347269274760038e-05,1.0,1.0,0.4672190248966217
0.033120000000000004,0.4953155517578125,-7.327133062062785e-05,1.0,1.0,0.46685880422592163
0.03348,0.49516722559928894,-7.296087278518826e-05,1.0,1.0,0.46649855375289917
0.03384,0.4950218200683594,-7.27652368368581e-05,1.0,1.0,0.4661383330821991
0.0342,0.49488234519958496,-7.229884067783132e-05,1.0,1.0,0.465778112411499
0.03456,0.4947396516799927,-7.231529161799699e-05,1.0,1.0,0.46541786193847656
0.03492,0.4945997893810272,-7.204096618806943e-05,1.0,1.0,0.4650576412677765
0.03528,0.49446117877960205,-7.16725699021481e-05,1.0,1.0,0.4646974205970764
0.035640000000000005,0.4943223297595978,-7.142471440602094e-05,1.0,1.0,0.46433717012405396
0.036000000000000004,0.49419230222702026,-7.122907118173316e-05,1.0,1.0,0.4639769494533539
0.03636,0.49406933784484863,-7.12362234480679e-05,1.0,1.0,0.4636167287826538
0.03672,0.4939412772655487,-7.10044550942257e-05,1.0,1.0,0.46325647830963135
0.03708,0.4938172698020935,-7.11578904883936e-05,1.0,1.0,0.4628962576389313
0.03744,0.4936942458152771,-7.090109284035861e-05,1.0,1.0,0.4625360369682312
0.0378,0.4935736656188965,-7.04661724739708e-05,1.0,1.0,0.46217578649520874
0.03816,0.4934599697589874,-7.030343840597197e-05,1.0,1.0,0.46181556582450867
0.038520000000000006,0.4933485686779022,-7.006988016655669e-05,1.0,1.0,0.4614553451538086
0.038880000000000005,0.49323490262031555,-7.01063618180342e-05,1.0,1.0,0.46109509468078613
0.039240000000000004,0.4931219518184662,-6.98116491548717e-05,1.0,1.0,0.46073487401008606
0.0396,0.49300527572631836,-6.971615221118554e-05,1.0,1.0,0.460374653339386
0.03996,0.4928969144821167,-6.949976523173973e-05,1.0,1.0,0.4600144028663635
0.04032,0.4927937090396881,-6.935669807717204e-05,1.0,1.0,0.45965418219566345
0.04068,0.49268805980682373,-6.903122266521677e-05,1.0,1.0,0.4592939615249634
0.04104,0.4925890266895294,-6.881770241307095e-05,1.0,1.0,0.4589337110519409
0.0414,0.49249643087387085,-6.866247713332996e-05,1.0,1.0,0.45857349038124084
0.041760000000000005,0.49240270256996155,-6.865103205200285e-05,1.0,1.0,0.45821326971054077
0.042120000000000005,0.49231383204460144,-6.856877007521689e-05,1.0,1.0,0.4578530192375183
0.042480000000000004,0.4922267496585846,-6.817140092607588e-05,1.0,1.0,0.45749279856681824
0.04284,0.49213841557502747,-6.823756848461926e-05,1.0,1.0,0.45713257789611816
0.0432,0.4920457899570465,-6.80540906614624e-05,1.0,1.0,0.4567723274230957
0.04356,0.49195799231529236,-6.814744119765237e-05,1.0,1.0,0.45641210675239563
0.04392,0.49187201261520386,-6.814958760514855e-05,1.0,1.0,0.45605188608169556
0.04428,0.49178770184516907,-6.795358785893768e-05,1.0,1.0,0.4556916356086731
0.044640000000000006,0.49170511960983276,-6.793856300646439e-05,1.0,1.0,0.455331414937973
0.045000000000000005,0.4916316866874695,-6.805945304222405e-05,1.0,1.0,0.45497119426727295
0.045360000000000004,0.4915521442890167,-6.786201993236318e-05,1.0,1.0,0.4546109437942505
0.045720000000000004,0.4914742112159729,-6.761166150681674e-05,1.0,1.0,0.4542507231235504
0.04608,0.4913993179798126,-6.744462734786794e-05,1.0,1.0,0.45389050245285034
0.04644,0.49132591485977173,-6.720463716192171e-05,1.0,1.0,0.4535302519798279
0.0468,0.4912554919719696,-6.720142118865624e-05,1.0,1.0,0.4531700313091278
0.04716,0.4911819398403168,-6.736916111549363e-05,1.0,1.0,0.45280981063842773
0.04752,0.4911068379878998,-6.746501458110288e-05,1.0,1.0,0.4524495601654053
0.047880000000000006,0.4910377562046051,-6.695856427541003e-05,1.0,1.0,0.4520893394947052
0.048240000000000005,0.4909685552120209,-6.688774737995118e-05,1.0,1.0,0.4517291188240051
0.048600000000000004,0.49090373516082764,-6.675255281152204e-05,1.0,1.0,0.45136886835098267
0.048960000000000004,0.490831196308136,-6.671392475254834e-05,1.0,1.0,0.4510086476802826
0.04932,0.4907616078853607,-6.632693111896515e-05,1.0,1.0,0.4506484270095825
0.04968,0.4906994104385376,-6.620246131205931e-05,1.0,1.0,0.45028817653656006
0.05004,0.49063992500305176,-6.597462925128639e-05,1.0,1.0,0.44992795586586
0.0504,0.4905831515789032,-6.612163269892335e-05,1.0,1.0,0.4495677351951599
0.050760000000000007,0.4905335307121277,-6.585481605725363e-05,1.0,1.0,0.44920748472213745
0.051120000000000006,0.49049681425094604,-6.576325540663674e-05,1.0,1.0,0.4488472640514374
0.051480000000000005,0.49044737219810486,-6.589951954083517e-05,1.0,1.0,0.4484870433807373
0.051840000000000004,0.49039745330810547,-6.555545405717567e-05,1.0,1.0,0.44812679290771484
0.0522,0.4903484880924225,-6.548105739057064e-05,1.0,1.0,0.44776657223701477
0.05256,0.4902975261211395,-6.536767614306882e-05,1.0,1.0,0.4474063515663147
0.05292,0.4902505576610565,-6.537232547998428e-05,1.0,1.0,0.44704610109329224
0.05328,0.49020305275917053,-6.525214848807082e-05,1.0,1.0,0.44668588042259216
0.05364,0.490153431892395,-6.53819806757383e-05,1.0,1.0,0.4463256597518921
0.054000000000000006,0.4901033043861389,-6.532940460601822e-05,1.0,1.0,0.44596540927886963
0.054360000000000006,0.49006932973861694,-6.5525047830306e-05,1.0,1.0,0.44560518860816956
0.054720000000000005,0.4900457561016083,-6.572569691343233e-05,1.0,1.0,0.4452449679374695
0.055080000000000004,0.48996466398239136,-6.88874424668029e-05,1.0,1.0,0.444884717464447
0.05544,0.4898792505264282,-6.866712647024542e-05,1.0,1.0,0.44452449679374695
0.0558,0.4897955358028412,-6.884059257572517e-05,1.0,1.0,0.4441642761230469
0.05616,0.4897104799747467,-6.867141928523779e-05,1.0,1.0,0.4438040256500244
0.05652,0.4896301329135895,-6.847577606095001e-05,1.0,1.0,0.44344380497932434
0.05688000000000001,0.48954686522483826,-6.849937926745042e-05,1.0,1.0,0.44308358430862427
0.057240000000000006,0.4894351661205292,-7.154381455620751e-05,1.0,1.0,0.4427233338356018
0.057600000000000005,0.4893152117729187,-7.145618292270228e-05,1.0,1.0,0.44236311316490173
0.057960000000000005,0.4891946017742157,-7.116683264030144e-05,1.0,1.0,0.44200289249420166
0.058320000000000004,0.4890763759613037,-7.113035098882392e-05,1.0,1.0,0.4416426420211792
0.05868,0.48895901441574097,-7.095903129084036e-05,1.0,1.0,0.4412824213504791
0.05904,0.4888424873352051,-7.071081199683249e-05,1.0,1.0,0.44092220067977905
0.0594,0.48872828483581543,-7.038355397526175e-05,1.0,1.0,0.4405619502067566
0.05976,0.4885697066783905,-7.367942453129217e-05,1.0,1.0,0.4402017295360565
0.06012000000000001,0.4884053170681,-7.333427492994815e-05,1.0,1.0,0.43984150886535645
0.060480000000000006,0.4882456958293915,-7.322769670281559e-05,1.0,1.0,0.439481258392334
0.060840000000000005,0.48809078335762024,-7.310108048841357e-05,1.0,1.0,0.4391210377216339
0.061200000000000004,0.48793745040893555,-7.283747982000932e-05,1.0,1.0,0.43876081705093384
0.061560000000000004,0.48779165744781494,-7.237001409521326e-05,1.0,1.0,0.4384005665779114
0.06192,0.4876442551612854,-7.21990509191528e-05,1.0,1.0,0.4380403459072113
0.06228,0.48745766282081604,-7.521916268160567e-05,1.0,1.0,0.43768012523651123
0.06264,0.4872627854347229,-7.497452315874398e-05,1.0,1.0,0.43731987476348877
0.063,0.48707178235054016,-7.461578934453428e-05,1.0,1.0,0.4369596540927887
0.06336,0.4868830740451813,-7.449703844031319e-05,1.0,1.0,0.4365994334220886
0.06372,0.48669663071632385,-7.432429265463725e-05,1.0,1.0,0.43623918294906616
0.06408,0.4865154027938843,-7.392728002741933e-05,1.0,1.0,0.4358789622783661
0.06444,0.4863377809524536,-7.358106813626364e-05,1.0,1.0,0.435518741607666
0.06480000000000001,0.4861336052417755,-7.659545372007415e-05,1.0,1.0,0.43515849113464355
0.06516000000000001,0.4859260022640228,-7.619916141266003e-05,1.0,1.0,0.4347982704639435
0.06552000000000001,0.4857240617275238,-7.598957017762586e-05,1.0,1.0,0.4344380497932434
0.06588000000000001,0.4855276048183441,-7.569127774331719e-05,1.0,1.0,0.43407779932022095
0.06624000000000001,0.48533204197883606,-7.55492874304764e-05,1.0,1.0,0.4337175786495209
0.0666,0.4851449131965637,-7.519091013818979e-05,1.0,1.0,0.4333573579788208
0.06696,0.48491784930229187,-7.827790250303224e-05,1.0,1.0,0.43299710750579834
0.06732,0.4846923351287842,-7.825536886230111e-05,1.0,1.0,0.43263688683509827
0.06768,0.48446381092071533,-7.786408968968317e-05,1.0,1.0,0.4322766661643982
0.06804,0.48424434661865234,-7.725141040282324e-05,1.0,1.0,0.43191641569137573
0.0684,0.4840277433395386,-7.719954737694934e-05,1.0,1.0,0.43155619502067566
0.06876,0.4838154911994934,-7.703931623836979e-05,1.0,1.0,0.4311959743499756
0.06912,0.4836074113845825,-7.686691969865933e-05,1.0,1.0,0.4308357238769531
0.06948,0.48336437344551086,-7.984125113580376e-05,1.0,1.0,0.43047550320625305
0.06984,0.48311418294906616,-7.948823622427881e-05,1.0,1.0,0.430115282535553
0.0702,0.48286744952201843,-7.93605504441075e-05,1.0,1.0,0.4297550320625305
0.07056,0.48262715339660645,-7.90397243690677e-05,1.0,1.0,0.42939481139183044
0.07092000000000001,0.48238861560821533,-7.86806340329349e-05,1.0,1.0,0.42903459072113037
0.07128000000000001,0.4821578562259674,-7.825644570402801e-05,1.0,1.0,0.4286743402481079
0.07164000000000001,0.48192864656448364,-7.808190275682136e-05,1.0,1.0,0.42831411957740784
0.07200000000000001,0.4816588759422302,-8.109807822620496e-05,1.0,1.0,0.42795389890670776
0.07236000000000001,0.48138701915740967,-8.074399374891073e-05,1.0,1.0,0.4275936484336853
0.07272,0.4811205267906189,-8.038561645662412e-05,1.0,1.0,0.42723342776298523
0.07308,0.48086389899253845,-7.996964995982125e-05,1.0,1.0,0.42687320709228516
0.07344,0.48061084747314453,-7.946713594719768e-05,1.0,1.0,0.4265129566192627
0.0738,0.48036134243011475,-7.902112702140585e-05,1.0,1.0,0.4261527359485626
0.07416,0.48008671402931213,-8.216391870519146e-05,1.0,1.0,0.42579251527786255
0.07452,0.4798130989074707,-8.16581814433448e-05,1.0,1.0,0.4254322648048401
0.07488,0.47954487800598145,-8.159165736287832e-05,1.0,1.0,0.42507204413414
0.07524,0.47928351163864136,-8.089528273558244e-05,1.0,1.0,0.42471182346343994
0.0756,0.47902584075927734,-8.056516526266932e-05,1.0,1.0,0.4243515729904175
0.07596,0.47877180576324463,-8.050900942180306e-05,1.0,1.0,0.4239913523197174
0.07632,0.4785243272781372,-7.999397348612547e-05,1.0,1.0,0.42363113164901733
0.07668,0.478248655796051,-8.294612780446187e-05,1.0,1.0,0.4232708811759949
0.07704000000000001,0.477973997592926,-8.289462857646868e-05,1.0,1.0,0.4229106605052948
0.07740000000000001,0.4777033030986786,-8.261207403847948e-05,1.0,1.0,0.4225504398345947
0.07776000000000001,0.4774380326271057,-8.228122896980494e-05,1.0,1.0,0.42219018936157227
0.07812000000000001,0.47717952728271484,-8.175976108759642e-05,1.0,1.0,0.4218299686908722
0.07848000000000001,0.4769231379032135,-8.141783473547548e-05,1.0,1.0,0.4214697480201721
0.07884000000000001,0.47667035460472107,-8.098720718408003e-05,1.0,1.0,0.42110949754714966
0.0792,0.4763789772987366,-8.397763303946704e-05,1.0,1.0,0.4207492768764496
0.07956,0.4760933518409729,-8.370938303414732e-05,1.0,1.0,0.4203890562057495
0.07992,0.4758014678955078,-8.327374962391332e-05,1.0,1.0,0.42002880573272705
0.08028,0.4756607413291931,-8.304162474814802e-05,1.0,1.0,0.419668585062027
0.08064,0.47540146112442017,-8.260455797426403e-05,1.0,1.0,0.4193083643913269
0.081,0.475151926279068,-8.242393960244954e-05,1.0,1.0,0.41894811391830444
0.08136,0.47491034865379333,-8.207307109842077e-05,1.0,1.0,0.41858789324760437
0.08172,0.47463589906692505,-8.519261609762907e-05,1.0,1.0,0.4182276725769043
0.08208,0.474356472492218,-8.471942419419065e-05,1.0,1.0,0.41786742210388184
0.08244,0.4740661084651947,-8.45091199153103e-05,1.0,1.0,0.41750720143318176
0.0828,0.47379499673843384,-8.407062705373392e-05,1.0,1.0,0.4171469807624817
0.08316000000000001,0.4735323190689087,-8.36993713164702e-05,1.0,1.0,0.41678673028945923
0.08352000000000001,0.4732718765735626,-8.317789615830407e-05,1.0,1.0,0.41642650961875916
0.08388000000000001,0.47298645973205566,-8.617440471425653e-05,1.0,1.0,0.4160662889480591
0.08424000000000001,0.4726887345314026,-8.579670975450426e-05,1.0,1.0,0.4157060384750366
0.08460000000000001,0.4723999500274658,-8.531493222108111e-05,1.0,1.0,0.41534581780433655
0.08496000000000001,0.4721064269542694,-8.471799810649827e-05,1.0,1.0,0.4149855971336365
0.08532000000000001,0.4718307554721832,-8.439108933089301e-05,1.0,1.0,0.414625346660614
0.08568,0.4715529978275299,-8.388463902520016e-05,1.0,1.0,0.41426512598991394
0.08604,0.47127485275268555,-8.36349863675423e-05,1.0,1.0,0.41390490531921387
0.0864,0.4709826111793518,-8.697056182427332e-05,1.0,1.0,0.4135446548461914
0.08676,0.47068268060684204,-8.657033322378993e-05,1.0,1.0,0.41318443417549133
