Time (s),Potential (V),Current (A),Cycle,Exp,Applied potential (V)
0.0,0.5019580721855164,-5.3765426855534315e-05,1.0,1.0,0.5
0.00036,0.5020713806152344,-5.662101466441527e-05,1.0,1.0,0.4996397793292999
0.00072,0.5021809339523315,-5.673045961884782e-05,1.0,1.0,0.49927952885627747
0.00108,0.502288281917572,-5.6976889027282596e-05,1.0,1.0,0.4989193081855774
0.00144,0.5023950338363647,-5.7042700063902885e-05,1.0,1.0,0.4985590875148773
0.0018000000000000002,0.5025011301040649,-5.7381406804779544e-05,1.0,1.0,0.49819883704185486
0.00216,0.5026035904884338,-5.720436092815362e-05,1.0,1.0,0.4978386163711548
0.00252,0.5027010440826416,-5.741788845625706e-05,1.0,1.0,0.4974783957004547
0.00288,0.5028011202812195,-5.7565601309761405e-05,1.0,1.0,0.49711814522743225
0.0032400000000000003,0.5029006004333496,-5.7639281294541433e-05,1.0,1.0,0.4967579245567322
0.0036000000000000003,0.5029921531677246,-5.7541998103260994e-05,1.0,1.0,0.4963977038860321
0.00396,0.5030848979949951,-5.756023892899975e-05,1.0,1.0,0.49603745341300964
0.00432,0.503172755241394,-5.7346354878973216e-05,1.0,1.0,0.49567723274230957
0.00468,0.5032573342323303,-5.762855289503932e-05,1.0,1.0,0.4953170120716095
0.00504,0.5033403038978577,-5.764857996837236e-05,1.0,1.0,0.49495676159858704
0.0054,0.5034230947494507,-5.8000165154226124e-05,1.0,1.0,0.49459654092788696
0.00576,0.5035102367401123,-5.7997662224806845e-05,1.0,1.0,0.4942363202571869
0.0061200000000000004,0.5035896301269531,-5.8176490711048245e-05,1.0,1.0,0.49387606978416443
0.0064800000000000005,0.5036659836769104,-5.8342448028270155e-05,1.0,1.0,0.49351584911346436
0.006840000000000001,0.5037422776222229,-5.836998752783984e-05,1.0,1.0,0.4931556284427643
0.007200000000000001,0.503817081451416,-5.8256249758414924e-05,1.0,1.0,0.4927953779697418
0.007560000000000001,0.5038903951644897,-5.814609176013619e-05,1.0,1.0,0.49243515729904175
0.00792,0.5039577484130859,-5.8486588386585936e-05,1.0,1.0,0.4920749366283417
0.008280000000000001,0.503990650177002,-6.185720849316567e-05,1.0,1.0,0.4917146861553192
0.00864,0.5040138959884644,-6.193196168169379e-05,1.0,1.0,0.49135446548461914
0.009000000000000001,0.5040366649627686,-6.182466313475743e-05,1.0,1.0,0.49099424481391907
0.00936,0.5040590167045593,-6.194305024109781e-05,1.0,1.0,0.4906339943408966
0.009720000000000001,0.5040779113769531,-6.173775182105601e-05,1.0,1.0,0.49027377367019653
0.01008,0.5040979385375977,-6.175241287564859e-05,1.0,1.0,0.48991355299949646
0.010440000000000001,0.5041175484657288,-6.172201392473653e-05,1.0,1.0,0.489553302526474
0.0108,0.5041066408157349,-6.503934127977118e-05,1.0,1.0,0.4891930818557739
0.011160000000000002,0.5040839314460754,-6.489126826636493e-05,1.0,1.0,0.48883286118507385
0.01152,0.504061758518219,-6.494384433608502e-05,1.0,1.0,0.4884726107120514
0.01188,0.5040385127067566,-6.481401214841753e-05,1.0,1.0,0.4881123900413513
0.012240000000000001,0.5040187239646912,-6.500715244328603e-05,1.0,1.0,0.48775216937065125
0.0126,0.5040038228034973,-6.461586599471048e-05,1.0,1.0,0.4873919188976288
0.012960000000000001,0.5039396286010742,-6.776545342290774e-05,1.0,1.0,0.4870316982269287
0.01332,0.5038647055625916,-6.773862696718425e-05,1.0,1.0,0.48667147755622864
0.013680000000000001,0.5037897229194641,-6.769534957129508e-05,1.0,1.0,0.4863112270832062
0.01404,0.5037147998809814,-6.786703306715935e-05,1.0,1.0,0.4859510064125061
0.014400000000000001,0.5036413669586182,-6.737989315297455e-05,1.0,1.0,0.48559078574180603
0.01476,0.503572404384613,-6.738775846315548e-05,1.0,1.0,0.48523053526878357
0.015120000000000001,0.5035017728805542,-6.73215909046121e-05,1.0,1.0,0.4848703145980835
0.01548,0.5033949613571167,-7.062640361255035e-05,1.0,1.0,0.4845100939273834
0.01584,0.5032781958580017,-7.059027848299593e-05,1.0,1.0,0.48414984345436096
0.016200000000000003,0.5031638145446777,-7.06199643900618e-05,1.0,1.0,0.4837896227836609
0.016560000000000002,0.5030487179756165,-7.01836179359816e-05,1.0,1.0,0.4834294021129608
0.01692,0.5029313564300537,-7.024013029877096e-05,1.0,1.0,0.48306915163993835
0.01728,0.5028193593025208,-6.985921936575323e-05,1.0,1.0,0.4827089309692383
0.01764,0.502712607383728,-6.985742948018014e-05,1.0,1.0,0.4823487102985382
0.018000000000000002,0.502570390701294,-7.288040069397539e-05,1.0,1.0,0.48198845982551575
0.01836,0.5024250149726868,-7.279599230969325e-05,1.0,1.0,0.4816282391548157
0.01872,0.5022810101509094,-7.237180398078635e-05,1.0,1.0,0.4812680184841156
0.01908,0.5021398663520813,-7.210749026853591e-05,1.0,1.0,0.48090776801109314
0.019440000000000002,0.502003014087677,-7.177129009505734e-05,1.0,1.0,0.48054754734039307
0.0198,0.5018719434738159,-7.185998401837423e-05,1.0,1.0,0.480187326669693
0.02016,0.5017374157905579,-7.142149115679786e-05,1.0,1.0,0.47982707619667053
0.02052,0.5015680193901062,-7.469947740901262e-05,1.0,1.0,0.47946685552597046
0.020880000000000003,0.5013929605484009,-7.442371861543506e-05,1.0,1.0,0.4791066348552704
0.021240000000000002,0.5012243986129761,-7.403029303532094e-05,1.0,1.0,0.4787463843822479
0.0216,0.5010607242584229,-7.392728002741933e-05,1.0,1.0,0.47838616371154785
0.02196,0.5008957982063293,-7.365617057075724e-05,1.0,1.0,0.4780259430408478
0.022320000000000003,0.5007296204566956,-7.35596040613018e-05,1.0,1.0,0.4776656925678253
0.022680000000000002,0.5005291104316711,-7.647885649930686e-05,1.0,1.0,0.47730547189712524
0.02304,0.5003281831741333,-7.639874093001708e-05,1.0,1.0,0.47694525122642517
0.0234,0.5001327395439148,-7.615373760927469e-05,1.0,1.0,0.4765850007534027
0.02376,0.4999411702156067,-7.609686872456223e-05,1.0,1.0,0.47622478008270264
0.024120000000000003,0.49975642561912537,-7.570880552520975e-05,1.0,1.0,0.47586455941200256
0.024480000000000002,0.49957382678985596,-7.548705616500229e-05,1.0,1.0,0.4755043089389801
0.02484,0.4993918836116791,-7.505499524995685e-05,1.0,1.0,0.47514408826828003
0.0252,0.49917593598365784,-7.836981967557222e-05,1.0,1.0,0.47478386759757996
0.025560000000000003,0.49895381927490234,-7.802288746461272e-05,1.0,1.0,0.4744236171245575
0.025920000000000002,0.4987391233444214,-7.8090131864883e-05,1.0,1.0,0.4740633964538574
0.02628,0.4985271990299225,-7.758081483189017e-05,1.0,1.0,0.47370317578315735
0.02664,0.498322457075119,-7.705469761276618e-05,1.0,1.0,0.4733429253101349
0.027000000000000003,0.4981263279914856,-7.645596633665264e-05,1.0,1.0,0.4729827046394348
0.027360000000000002,0.4979296326637268,-7.634580106241629e-05,1.0,1.0,0.47262248396873474
0.02772,0.49773383140563965,-7.619951793458313e-05,1.0,1.0,0.4722622334957123
0.02808,0.49754491448402405,-7.602426194353029e-05,1.0,1.0,0.4719020128250122
0.028440000000000003,0.49735522270202637,-7.566731801489368e-05,1.0,1.0,0.47154179215431213
0.028800000000000003,0.49716633558273315,-7.554607145721093e-05,1.0,1.0,0.4711815416812897
0.029160000000000002,0.4969826936721802,-7.506322435801849e-05,1.0,1.0,0.4708213210105896
0.02952,0.4967951774597168,-7.481178181478754e-05,1.0,1.0,0.4704611003398895
0.02988,0.4966159164905548,-7.4662639235612e-05,1.0,1.0,0.47010084986686707
0.030240000000000003,0.4964371919631958,-7.43800846976228e-05,1.0,1.0,0.469740629196167
0.030600000000000002,0.4962650537490845,-7.430926780216396e-05,1.0,1.0,0.4693804085254669
0.03096,0.49609479308128357,-7.398128946078941e-05,1.0,1.0,0.46902015805244446
0.03132,0.4959249496459961,-7.37910158932209e-05,1.0,1.0,0.4686599373817444
0.03168,0.49576300382614136,-7.343764445977286e-05,1.0,1.0,0.4682997167110443
0.03204,0.4956027567386627,-7.316760456888005e-05,1.0,1.0,0.46793949604034424
0.032400000000000005,0.49544569849967957,-7.331174128921703e-05,1.0,1.0,0.4675792455673218
0.032760000000000004,0.4952932596206665,-7.297733100131154e-05,1.0,1.0,0.4672190248966217
0.033120000000000004,0.4951438903808594,-7.279241981450468e-05,1.0,1.0,0.46685880422592163
0.03348,0.4949930012226105,-7.27115839254111e-05,1.0,1.0,0.46649855375289917
0.03384,0.4948556125164032,-7.239719707285985e-05,1.0,1.0,0.4661383330821991
0.0342,0.4947149157524109,-7.196656952146441e-05,1.0,1.0,0.465778112411499
0.03456,0.49457255005836487,-7.206349982880056e-05,1.0,1.0,0.46541786193847656
0.03492,0.494440495967865,-7.160998211475089e-05,1.0,1.0,0.4650576412677765
0.03528,0.4943141043186188,-7.140718662412837e-05,1.0,1.0,0.4646974205970764
0.035640000000000005,0.49418872594833374,-7.139895751606673e-05,1.0,1.0,0.46433717012405396
0.036000000000000004,0.4940628111362457,-7.128415018087253e-05,1.0,1.0,0.4639769494533539
0.03636,0.4939378798007965,-7.112713501555845e-05,1.0,1.0,0.4636167287826538
0.03672,0.49381548166275024,-7.083563832566142e-05,1.0,1.0,0.46325647830963135
0.03708,0.49369698762893677,-7.040751370368525e-05,1.0,1.0,0.4628962576389313
0.03744,0.49357935786247253,-7.011315756244585e-05,1.0,1.0,0.4625360369682312
0.0378,0.49346259236335754,-7.008203829172999e-05,1.0,1.0,0.46217578649520874
0.03816,0.4933481216430664,-6.993647548370063e-05,1.0,1.0,0.46181556582450867
0.038520000000000006,0.49323591589927673,-7.000014011282474e-05,1.0,1.0,0.4614553451538086
0.038880000000000005,0.4931289851665497,-6.972903065616265e-05,1.0,1.0,0.46109509468078613
0.039240000000000004,0.4930226802825928,-6.941714673303068e-05,1.0,1.0,0.46073487401008606
0.0396,0.4929184913635254,-6.922579632373527e-05,1.0,1.0,0.460374653339386
0.03996,0.4928193688392639,-6.905697955517098e-05,1.0,1.0,0.4600144028663635
0.04032,0.4927177131175995,-6.909775402164087e-05,1.0,1.0,0.45965418219566345
0.04068,0.4926210641860962,-6.888422649353743e-05,1.0,1.0,0.4592939615249634
0.04104,0.49252787232398987,-6.877442501718178e-05,1.0,1.0,0.4589337110519409
0.0414,0.4924350082874298,-6.87350839143619e-05,1.0,1.0,0.45857349038124084
0.041760000000000005,0.49233949184417725,-6.854515959275886e-05,1.0,1.0,0.45821326971054077
0.042120000000000005,0.4922504127025604,-6.832912913523614e-05,1.0,1.0,0.4578530192375183
0.042480000000000004,0.4921616017818451,-6.823935837019235e-05,1.0,1.0,0.45749279856681824
0.04284,0.4920790493488312,-6.80404991726391e-05,1.0,1.0,0.45713257789611816
0.0432,0.49199363589286804,-6.774721259716898e-05,1.0,1.0,0.4567723274230957
0.04356,0.49191293120384216,-6.773827044526115e-05,1.0,1.0,0.45641210675239563
0.04392,0.4918353259563446,-6.77182397339493e-05,1.0,1.0,0.45605188608169556
0.04428,0.4917532503604889,-6.766674050595611e-05,1.0,1.0,0.4556916356086731
0.044640000000000006,0.49167731404304504,-6.731908797519282e-05,1.0,1.0,0.455331414937973
0.045000000000000005,0.4915998876094818,-6.752367335138842e-05,1.0,1.0,0.45497119426727295
0.045360000000000004,0.4915255010128021,-6.718854274367914e-05,1.0,1.0,0.4546109437942505
0.045720000000000004,0.4914555847644806,-6.712666800012812e-05,1.0,1.0,0.4542507231235504
0.04608,0.49138858914375305,-6.674790347460657e-05,1.0,1.0,0.45389050245285034
0.04644,0.4913199245929718,-6.654832395724952e-05,1.0,1.0,0.4535302519798279
0.0468,0.49124810099601746,-6.644031236646697e-05,1.0,1.0,0.4531700313091278
0.04716,0.4911807179450989,-6.64224280626513e-05,1.0,1.0,0.45280981063842773
0.04752,0.49112069606781006,-6.628830305999145e-05,1.0,1.0,0.4524495601654053
0.047880000000000006,0.49105435609817505,-6.611554999835789e-05,1.0,1.0,0.4520893394947052
0.048240000000000005,0.4909893274307251,-6.6128428443335e-05,1.0,1.0,0.4517291188240051
0.048600000000000004,0.49093469977378845,-6.614201993215829e-05,1.0,1.0,0.45136886835098267
0.048960000000000004,0.4908750653266907,-6.586697418242693e-05,1.0,1.0,0.4510086476802826
0.04932,0.49081212282180786,-6.57696946291253e-05,1.0,1.0,0.4506484270095825
0.04968,0.4907474219799042,-6.566060619661584e-05,1.0,1.0,0.45028817653656006
0.05004,0.49068549275398254,-6.552254490088671e-05,1.0,1.0,0.44992795586586
0.0504,0.4906232953071594,-6.550752732437104e-05,1.0,1.0,0.4495677351951599
0.050760000000000007,0.4905623197555542,-6.52943563181907e-05,1.0,1.0,0.44920748472213745
0.051120000000000006,0.4905085861682892,-6.525644130306318e-05,1.0,1.0,0.4488472640514374
0.051480000000000005,0.4904499351978302,-6.542597839143127e-05,1.0,1.0,0.4484870433807373
0.051840000000000004,0.49039095640182495,-6.555402069352567e-05,1.0,1.0,0.44812679290771484
0.0522,0.4903436303138733,-6.516667053801939e-05,1.0,1.0,0.44776657223701477
0.05256,0.4902942180633545,-6.513627158710733e-05,1.0,1.0,0.4474063515663147
0.05292,0.4902428090572357,-6.512482650578022e-05,1.0,1.0,0.44704610109329224
0.05328,0.4901879131793976,-6.513841799460351e-05,1.0,1.0,0.44668588042259216
0.05364,0.49013713002204895,-6.516166467918083e-05,1.0,1.0,0.4463256597518921
0.054000000000000006,0.49009037017822266,-6.500393647002056e-05,1.0,1.0,0.44596540927886963
0.054360000000000006,0.490043044090271,-6.50636648060754e-05,1.0,1.0,0.44560518860816956
0.054720000000000005,0.4899936318397522,-6.511123501695693e-05,1.0,1.0,0.4452449679374695
0.055080000000000004,0.4899437129497528,-6.486623169621453e-05,1.0,1.0,0.444884717464447
0.05544,0.4898947477340698,-6.514807319035754e-05,1.0,1.0,0.44452449679374695
0.0558,0.4898528456687927,-6.459440919570625e-05,1.0,1.0,0.4441642761230469
0.05616,0.48981472849845886,-6.448210478993133e-05,1.0,1.0,0.4438040256500244
0.05652,0.4897788465023041,-6.436371768359095e-05,1.0,1.0,0.44344380497932434
0.05688000000000001,0.48973920941352844,-6.445348844863474e-05,1.0,1.0,0.44308358430862427
0.057240000000000006,0.4896988868713379,-6.440877768909559e-05,1.0,1.0,0.4427233338356018
0.057600000000000005,0.4896548390388489,-6.434976967284456e-05,1.0,1.0,0.44236311316490173
0.057960000000000005,0.48961615562438965,-6.441557343350723e-05,1.0,1.0,0.44200289249420166
0.058320000000000004,0.4895782470703125,-6.445492181228474e-05,1.0,1.0,0.4416426420211792
0.05868,0.4895455837249756,-6.432508962461725e-05,1.0,1.0,0.4412824213504791
0.05904,0.48951056599617004,-6.413338269339874e-05,1.0,1.0,0.44092220067977905
0.0594,0.48947328329086304,-6.41516235191375e-05,1.0,1.0,0.4405619502067566
0.05976,0.48943519592285156,-6.437945557991043e-05,1.0,1.0,0.4402017295360565
0.06012000000000001,0.48940539360046387,-6.422386650228873e-05,1.0,1.0,0.43984150886535645
0.060480000000000006,0.4893791973590851,-6.378823309205472e-05,1.0,1.0,0.439481258392334
0.060840000000000005,0.4893084168434143,-6.723861588397995e-05,1.0,1.0,0.4391210377216339
0.061200000000000004,0.4892330467700958,-6.724827107973397e-05,1.0,1.0,0.43876081705093384
0.061560000000000004,0.48915913701057434,-6.716243660775945e-05,1.0,1.0,0.4384005665779114
0.06192,0.48908674716949463,-6.689132715109736e-05,1.0,1.0,0.4380403459072113
0.06228,0.4890157878398895,-6.692816532449797e-05,1.0,1.0,0.43768012523651123
0.06264,0.48894625902175903,-6.67568456265144e-05,1.0,1.0,0.43731987476348877
0.063,0.4888404607772827,-7.011459092609584e-05,1.0,1.0,0.4369596540927887
0.06336,0.4887428879737854,-6.979591125855222e-05,1.0,1.0,0.4365994334220886
0.06372,0.4886336624622345,-6.99264564900659e-05,1.0,1.0,0.43623918294906616
0.06408,0.48852813243865967,-6.977123121032491e-05,1.0,1.0,0.4358789622783661
0.06444,0.48842766880989075,-6.979412137297913e-05,1.0,1.0,0.435518741607666
0.06480000000000001,0.48832473158836365,-6.94650734658353e-05,1.0,1.0,0.43515849113464355
0.06516000000000001,0.488219290971756,-6.93999754730612e-05,1.0,1.0,0.4347982704639435
0.06552000000000001,0.4880753755569458,-7.278097473317757e-05,1.0,1.0,0.4344380497932434
0.06588000000000001,0.48792681097984314,-7.251201168401167e-05,1.0,1.0,0.43407779932022095
0.06624000000000001,0.4877782464027405,-7.25331119610928e-05,1.0,1.0,0.4337175786495209
0.0666,0.48763561248779297,-7.236429519252852e-05,1.0,1.0,0.4333573579788208
0.06696,0.4874943196773529,-7.223982538562268e-05,1.0,1.0,0.43299710750579834
0.06732,0.48735731840133667,-7.230742630781606e-05,1.0,1.0,0.43263688683509827
0.06768,0.4872230589389801,-7.219940744107589e-05,1.0,1.0,0.4322766661643982
0.06804,0.4870433509349823,-7.522202213294804e-05,1.0,1.0,0.43191641569137573
0.0684,0.48685672879219055,-7.502459629904479e-05,1.0,1.0,0.43155619502067566
0.06876,0.48667535185813904,-7.475777965737507e-05,1.0,1.0,0.4311959743499756
0.06912,0.4864990711212158,-7.445590745192021e-05,1.0,1.0,0.4308357238769531
0.06948,0.48632779717445374,-7.424668001476675e-05,1.0,1.0,0.43047550320625305
0.06984,0.4861748516559601,-7.393729902105406e-05,1.0,1.0,0.430115282535553
0.0702,0.4860055148601532,-7.39448078093119e-05,1.0,1.0,0.4297550320625305
0.07056,0.48580947518348694,-7.69738617236726e-05,1.0,1.0,0.42939481139183044
0.07092000000000001,0.4856143295764923,-7.657756941625848e-05,1.0,1.0,0.42903459072113037
0.07128000000000001,0.48541855812072754,-7.654323417227715e-05,1.0,1.0,0.4286743402481079
0.07164000000000001,0.4852311909198761,-7.605681457789615e-05,1.0,1.0,0.42831411957740784
0.07200000000000001,0.4850490689277649,-7.566302519990131e-05,1.0,1.0,0.42795389890670776
0.07236000000000001,0.48486757278442383,-7.554177864221856e-05,1.0,1.0,0.4275936484336853
0.07272,0.48465806245803833,-7.889058178989217e-05,1.0,1.0,0.42723342776298523
0.07308,0.48444074392318726,-7.855652074795216e-05,1.0,1.0,0.42687320709228516
0.07344,0.484226256608963,-7.797245780238882e-05,1.0,1.0,0.4265129566192627
0.0738,0.48401305079460144,-7.77439126977697e-05,1.0,1.0,0.4261527359485626
0.07416,0.48380857706069946,-7.748996722511947e-05,1.0,1.0,0.42579251527786255
0.07452,0.4836081564426422,-7.719847781118006e-05,1.0,1.0,0.4254322648048401
0.07488,0.4834116995334625,-7.695347449043766e-05,1.0,1.0,0.42507204413414
0.07524,0.48317253589630127,-8.021500980248675e-05,1.0,1.0,0.42471182346343994
0.0756,0.48292168974876404,-8.001150126801804e-05,1.0,1.0,0.4243515729904175
0.07596,0.4826803207397461,-7.974325126269832e-05,1.0,1.0,0.4239913523197174
0.07632,0.48244374990463257,-7.923501107143238e-05,1.0,1.0,0.42363113164901733
0.07668,0.4822119176387787,-7.882405770942569e-05,1.0,1.0,0.4232708811759949
0.07704000000000001,0.48198768496513367,-7.86305608926341e-05,1.0,1.0,0.4229106605052948
0.07740000000000001,0.48177090287208557,-7.820172322681174e-05,1.0,1.0,0.4225504398345947
0.07776000000000001,0.4815163314342499,-8.090780465863645e-05,1.0,1.0,0.42219018936157227
0.07812000000000001,0.481257826089859,-8.039241220103577e-05,1.0,1.0,0.4218299686908722
0.07848000000000001,0.4810044467449188,-8.013167098397389e-05,1.0,1.0,0.4214697480201721
0.07884000000000001,0.48075762391090393,-7.979403744684532e-05,1.0,1.0,0.42110949754714966
0.0792,0.48051270842552185,-7.944316894281656e-05,1.0,1.0,0.4207492768764496
0.07956,0.48027265071868896,-7.895424641901627e-05,1.0,1.0,0.4203890562057495
0.07992,0.4800027906894684,-8.231199171859771e-05,1.0,1.0,0.42002880573272705
0.08028,0.4797308146953583,-8.178193093044683e-05,1.0,1.0,0.419668585062027
0.08064,0.47946426272392273,-8.125223394017667e-05,1.0,1.0,0.4193083643913269
0.081,0.4792029857635498,-8.080515544861555e-05,1.0,1.0,0.41894811391830444
0.08136,0.4789469242095947,-8.056516526266932e-05,1.0,1.0,0.41858789324760437
0.08172,0.4786989390850067,-8.004225674085319e-05,1.0,1.0,0.4182276725769043
0.08208,0.47845590114593506,-7.943422679090872e-05,1.0,1.0,0.41786742210388184
0.08244,0.47818461060523987,-8.253696432802826e-05,1.0,1.0,0.41750720143318176
0.0828,0.47790825366973877,-8.213137334678322e-05,1.0,1.0,0.4171469807624817
0.08316000000000001,0.477637380361557,-8.169752254616469e-05,1.0,1.0,0.41678673028945923
0.08352000000000001,0.4773733913898468,-8.14153318060562e-05,1.0,1.0,0.41642650961875916
0.08388000000000001,0.4771161675453186,-8.063275890890509e-05,1.0,1.0,0.4160662889480591
0.08424000000000001,0.47685953974723816,-8.054370118770748e-05,1.0,1.0,0.4157060384750366
0.08460000000000001,0.4766095280647278,-8.026722935028374e-05,1.0,1.0,0.41534581780433655
0.08496000000000001,0.47632235288619995,-8.314963633893058e-05,1.0,1.0,0.4149855971336365
0.08532000000000001,0.47602593898773193,-8.312710997415707e-05,1.0,1.0,0.414625346660614
0.08568,0.4757339060306549,-8.30323260743171e-05,1.0,1.0,0.41426512598991394
0.08604,0.4754476547241211,-8.254590647993609e-05,1.0,1.0,0.41390490531921387
0.0864,0.4751701354980469,-8.206556231016293e-05,1.0,1.0,0.4135446548461914
