Time (s),Potential (V),Current (A),Cycle,Exp,Applied potential (V)
0.0,0.48992276191711426,-5.518606849364005e-05,1.0,1.0,0.5
0.00036,0.4901357591152191,-5.532627255888656e-05,1.0,1.0,0.4997479319572449
0.00072,0.4903475344181061,-5.5470765801146626e-05,1.0,1.0,0.49949583411216736
0.00108,0.4905520975589752,-5.556233008974232e-05,1.0,1.0,0.49924376606941223
0.00144,0.4907495975494385,-5.563743980019353e-05,1.0,1.0,0.4989916682243347
0.0018000000000000002,0.4909416437149048,-5.5695378250675276e-05,1.0,1.0,0.4987396001815796
0.00216,0.4911283552646637,-5.581698496825993e-05,1.0,1.0,0.49848753213882446
0.00252,0.49131134152412415,-5.589030479313806e-05,1.0,1.0,0.49823543429374695
0.00288,0.49149224162101746,-5.6069136917358264e-05,1.0,1.0,0.4979833662509918
0.0032400000000000003,0.49167248606681824,-5.6137811043299735e-05,1.0,1.0,0.4977312684059143
0.0036000000000000003,0.4918461740016937,-5.614460678771138e-05,1.0,1.0,0.4974792003631592
0.00396,0.49201488494873047,-5.62958957743831e-05,1.0,1.0,0.49722713232040405
0.00432,0.49218177795410156,-5.647687430609949e-05,1.0,1.0,0.49697503447532654
0.00468,0.49234381318092346,-5.6365999625995755e-05,1.0,1.0,0.4967229664325714
0.00504,0.4925026595592499,-5.647937723551877e-05,1.0,1.0,0.4964708983898163
0.0054,0.4926583170890808,-5.653338666888885e-05,1.0,1.0,0.49621880054473877
0.00576,0.4927372634410858,-5.658381633111276e-05,1.0,1.0,0.49596673250198364
0.0061200000000000004,0.4928882420063019,-5.6656423112144694e-05,1.0,1.0,0.49571463465690613
0.0064800000000000005,0.4930407404899597,-5.665141361532733e-05,1.0,1.0,0.495462566614151
0.006840000000000001,0.49318867921829224,-5.683131894329563e-05,1.0,1.0,0.4952104985713959
0.007200000000000001,0.49332916736602783,-5.687030352419242e-05,1.0,1.0,0.49495840072631836
0.007560000000000001,0.4934728741645813,-5.6934684835141525e-05,1.0,1.0,0.49470633268356323
0.00792,0.4936077296733856,-5.708776370738633e-05,1.0,1.0,0.4944542348384857
0.008280000000000001,0.49374139308929443,-5.7332406868226826e-05,1.0,1.0,0.4942021667957306
0.00864,0.49387243390083313,-5.72837634535972e-05,1.0,1.0,0.49395009875297546
0.009000000000000001,0.4939587116241455,-5.881778270122595e-05,1.0,1.0,0.49369800090789795
0.00936,0.49403879046440125,-5.885998689336702e-05,1.0,1.0,0.4934459328651428
0.009720000000000001,0.49411579966545105,-5.899840471101925e-05,1.0,1.0,0.4931938350200653
0.01008,0.49419423937797546,-5.907136801397428e-05,1.0,1.0,0.4929417669773102
0.010440000000000001,0.49426811933517456,-5.919869363424368e-05,1.0,1.0,0.49268969893455505
0.0108,0.4943375289440155,-5.922516356804408e-05,1.0,1.0,0.49243760108947754
0.011160000000000002,0.4944040775299072,-5.922909622313455e-05,1.0,1.0,0.4921855330467224
0.01152,0.4944768249988556,-5.930849874857813e-05,1.0,1.0,0.4919334650039673
0.01188,0.4945465922355652,-5.9421163314254954e-05,1.0,1.0,0.49168136715888977
0.012240000000000001,0.49461647868156433,-5.941257768427022e-05,1.0,1.0,0.49142929911613464
0.0126,0.4946383535861969,-6.090904207667336e-05,1.0,1.0,0.49117720127105713
0.012960000000000001,0.4946538209915161,-6.091118848416954e-05,1.0,1.0,0.490925133228302
0.01332,0.4946705102920532,-6.0790298448409885e-05,1.0,1.0,0.4906730651855469
0.013680000000000001,0.4946868419647217,-6.088114605518058e-05,1.0,1.0,0.49042096734046936
0.01404,0.4947013258934021,-6.0848240536870435e-05,1.0,1.0,0.49016889929771423
0.014400000000000001,0.4947170615196228,-6.091440809541382e-05,1.0,1.0,0.4899168014526367
0.01476,0.4947339594364166,-6.099237725720741e-05,1.0,1.0,0.4896647334098816
0.015120000000000001,0.49474748969078064,-6.0975569795118645e-05,1.0,1.0,0.48941266536712646
0.01548,0.4947577714920044,-6.090546594350599e-05,1.0,1.0,0.48916056752204895
0.01584,0.4947708547115326,-6.097163350204937e-05,1.0,1.0,0.4889084994792938
0.016200000000000003,0.49475353956222534,-6.234434840735048e-05,1.0,1.0,0.4886564016342163
0.016560000000000002,0.4947291314601898,-6.241373193915933e-05,1.0,1.0,0.4884043335914612
0.01692,0.49470824003219604,-6.241516530280933e-05,1.0,1.0,0.48815226554870605
0.01728,0.4946892261505127,-6.239549111342058e-05,1.0,1.0,0.48790016770362854
0.01764,0.49466758966445923,-6.236079934751615e-05,1.0,1.0,0.4876480996608734
0.018000000000000002,0.49464038014411926,-6.247918645385653e-05,1.0,1.0,0.4873960316181183
0.01836,0.4946257472038269,-6.242767994990572e-05,1.0,1.0,0.48714393377304077
0.01872,0.4946069121360779,-6.2431616242975e-05,1.0,1.0,0.48689186573028564
0.01908,0.4945869445800781,-6.255071639316157e-05,1.0,1.0,0.48663976788520813
0.019440000000000002,0.4945177137851715,-6.390733324224129e-05,1.0,1.0,0.486387699842453
0.0198,0.4944424033164978,-6.375103839673102e-05,1.0,1.0,0.4861356317996979
0.02016,0.4943685829639435,-6.373279757099226e-05,1.0,1.0,0.48588353395462036
0.02052,0.49429622292518616,-6.366663001244888e-05,1.0,1.0,0.48563146591186523
0.020880000000000003,0.49422529339790344,-6.365768786054105e-05,1.0,1.0,0.4853793680667877
0.021240000000000002,0.49415579438209534,-6.362191925290972e-05,1.0,1.0,0.4851273000240326
0.0216,0.4940861463546753,-6.34967364021577e-05,1.0,1.0,0.48487523198127747
0.02196,0.49401789903640747,-6.34967364021577e-05,1.0,1.0,0.48462313413619995
0.022320000000000003,0.4939510226249695,-6.350532203214243e-05,1.0,1.0,0.4843710660934448
0.022680000000000002,0.4938869774341583,-6.339301762636751e-05,1.0,1.0,0.4841189682483673
0.02304,0.49378806352615356,-6.482832395704463e-05,1.0,1.0,0.4838669002056122
0.0234,0.49368518590927124,-6.475321424659342e-05,1.0,1.0,0.48361483216285706
0.02376,0.49358436465263367,-6.473068060586229e-05,1.0,1.0,0.48336273431777954
0.024120000000000003,0.49348703026771545,-6.454469257732853e-05,1.0,1.0,0.4831106662750244
0.024480000000000002,0.4933886229991913,-6.453360401792452e-05,1.0,1.0,0.4828585684299469
0.02484,0.4932921528816223,-6.442630547098815e-05,1.0,1.0,0.4826065003871918
0.0252,0.49319911003112793,-6.437658885261044e-05,1.0,1.0,0.48235443234443665
0.025560000000000003,0.4931049346923828,-6.437337287934497e-05,1.0,1.0,0.48210233449935913
0.025920000000000002,0.4930126368999481,-6.424997991416603e-05,1.0,1.0,0.481850266456604
0.02628,0.49287402629852295,-6.560301699209958e-05,1.0,1.0,0.4815981984138489
0.02664,0.4927337169647217,-6.561697227880359e-05,1.0,1.0,0.48134610056877136
0.027000000000000003,0.49259766936302185,-6.554829451488331e-05,1.0,1.0,0.48109403252601624
0.027360000000000002,0.4924628436565399,-6.542633491335437e-05,1.0,1.0,0.4808419346809387
0.02772,0.49233219027519226,-6.545101496158168e-05,1.0,1.0,0.4805898666381836
0.02808,0.49220263957977295,-6.541095353895798e-05,1.0,1.0,0.48033779859542847
0.028440000000000003,0.49207568168640137,-6.527075311169028e-05,1.0,1.0,0.48008570075035095
0.028800000000000003,0.49195122718811035,-6.530866085086018e-05,1.0,1.0,0.4798336327075958
0.029160000000000002,0.4918307662010193,-6.514163396786898e-05,1.0,1.0,0.4795815348625183
0.02952,0.49171268939971924,-6.501430470962077e-05,1.0,1.0,0.4793294668197632
0.02988,0.49159395694732666,-6.493204273283482e-05,1.0,1.0,0.47907739877700806
0.030240000000000003,0.4914776086807251,-6.487696373369545e-05,1.0,1.0,0.47882530093193054
0.030600000000000002,0.4913635551929474,-6.487553037004545e-05,1.0,1.0,0.4785732328891754
0.03096,0.4912547767162323,-6.47167325951159e-05,1.0,1.0,0.4783211350440979
0.03132,0.4911482036113739,-6.469312211265787e-05,1.0,1.0,0.4780690670013428
0.03168,0.49104219675064087,-6.463017780333757e-05,1.0,1.0,0.47781699895858765
0.03204,0.49093833565711975,-6.451608351198956e-05,1.0,1.0,0.47756490111351013
0.032400000000000005,0.4908365309238434,-6.445420149248093e-05,1.0,1.0,0.477312833070755
0.032760000000000004,0.4907352328300476,-6.449426291510463e-05,1.0,1.0,0.4770607650279999
0.033120000000000004,0.4906359612941742,-6.443167512770742e-05,1.0,1.0,0.47680866718292236
0.03348,0.49053868651390076,-6.449640932260081e-05,1.0,1.0,0.47655659914016724
0.03384,0.49044331908226013,-6.455184484366328e-05,1.0,1.0,0.4763045012950897
0.0342,0.4903498589992523,-6.450499495258555e-05,1.0,1.0,0.4760524332523346
0.03456,0.4902597665786743,-6.438374111894518e-05,1.0,1.0,0.47580036520957947
0.03492,0.49017149209976196,-6.435405521187931e-05,1.0,1.0,0.47554826736450195
0.03528,0.4900834262371063,-6.432687951019034e-05,1.0,1.0,0.4752961993217468
0.035640000000000005,0.48999714851379395,-6.434440001612529e-05,1.0,1.0,0.4750441014766693
0.036000000000000004,0.48991256952285767,-6.431936344597489e-05,1.0,1.0,0.4747920334339142
0.03636,0.4898296594619751,-6.420526915462688e-05,1.0,1.0,0.47453996539115906
0.03672,0.48974841833114624,-6.425999163184315e-05,1.0,1.0,0.47428786754608154
0.03708,0.4896687865257263,-6.410691275959834e-05,1.0,1.0,0.4740357995033264
0.03744,0.4896042048931122,-6.409904744941741e-05,1.0,1.0,0.4737837016582489
0.0378,0.48952895402908325,-6.394238880602643e-05,1.0,1.0,0.4735316336154938
0.03816,0.4894551932811737,-6.396634853444993e-05,1.0,1.0,0.47327956557273865
0.038520000000000006,0.48938438296318054,-6.389267218764871e-05,1.0,1.0,0.47302746772766113
0.038880000000000005,0.489315003156662,-6.392557406798005e-05,1.0,1.0,0.472775399684906
0.039240000000000004,0.4892440140247345,-6.380933336913586e-05,1.0,1.0,0.4725233316421509
0.0396,0.4891759157180786,-6.378858961397782e-05,1.0,1.0,0.47227123379707336
0.03996,0.48910921812057495,-6.379002297762781e-05,1.0,1.0,0.47201916575431824
0.04032,0.48904383182525635,-6.380862032528967e-05,1.0,1.0,0.4717670679092407
0.04068,0.48897823691368103,-6.383794971043244e-05,1.0,1.0,0.4715149998664856
0.04104,0.48891693353652954,-6.374459917424247e-05,1.0,1.0,0.47126293182373047
0.0414,0.48885685205459595,-6.366663001244888e-05,1.0,1.0,0.47101083397865295
0.041760000000000005,0.4887964725494385,-6.369416951201856e-05,1.0,1.0,0.4707587659358978
0.042120000000000005,0.48873579502105713,-6.365268200170249e-05,1.0,1.0,0.4705066680908203
0.042480000000000004,0.48867931962013245,-6.367807509377599e-05,1.0,1.0,0.4702546000480652
0.04284,0.48862096667289734,-6.36512486380525e-05,1.0,1.0,0.47000253200531006
0.0432,0.4885652959346771,-6.351820047711954e-05,1.0,1.0,0.46975043416023254
0.04356,0.4885092079639435,-6.355003279168159e-05,1.0,1.0,0.4694983661174774
0.04392,0.48845574259757996,-6.357292295433581e-05,1.0,1.0,0.4692462682723999
0.04428,0.4884018301963806,-6.349566683638841e-05,1.0,1.0,0.4689942002296448
0.044640000000000006,0.488350510597229,-6.347420276142657e-05,1.0,1.0,0.46874213218688965
0.045000000000000005,0.4883002042770386,-6.34963798802346e-05,1.0,1.0,0.46849003434181213
0.045360000000000004,0.4882524013519287,-6.345095607684925e-05,1.0,1.0,0.468237966299057
0.045720000000000004,0.4882040321826935,-6.34459502180107e-05,1.0,1.0,0.4679858982563019
0.04608,0.48815667629241943,-6.347813905449584e-05,1.0,1.0,0.46773380041122437
0.04644,0.4881102442741394,-6.338836828945205e-05,1.0,1.0,0.46748173236846924
0.0468,0.4880647361278534,-6.337584636639804e-05,1.0,1.0,0.4672296345233917
0.04716,0.488020122051239,-6.32274168310687e-05,1.0,1.0,0.4669775664806366
0.04752,0.48797789216041565,-6.325424328679219e-05,1.0,1.0,0.46672549843788147
0.047880000000000006,0.48793351650238037,-6.32020237389952e-05,1.0,1.0,0.46647340059280396
0.048240000000000005,0.48789000511169434,-6.328428571578115e-05,1.0,1.0,0.46622133255004883
0.048600000000000004,0.4878503680229187,-6.313264020718634e-05,1.0,1.0,0.4659692347049713
0.048960000000000004,0.48781001567840576,-6.319272506516427e-05,1.0,1.0,0.4657171666622162
0.04932,0.4877704679965973,-6.309687159955502e-05,1.0,1.0,0.46546509861946106
0.04968,0.4877302050590515,-6.310938624665141e-05,1.0,1.0,0.46521300077438354
0.05004,0.487693727016449,-6.307075818767771e-05,1.0,1.0,0.4649609327316284
0.0504,0.4876580238342285,-6.306468276306987e-05,1.0,1.0,0.4647088348865509
0.050760000000000007,0.4876229763031006,-6.303213740466163e-05,1.0,1.0,0.4644567668437958
0.051120000000000006,0.4875856637954712,-6.29566638963297e-05,1.0,1.0,0.46420469880104065
0.051480000000000005,0.48755207657814026,-6.286653660936281e-05,1.0,1.0,0.46395260095596313
0.051840000000000004,0.48751765489578247,-6.282790855038911e-05,1.0,1.0,0.463700532913208
0.0522,0.487483948469162,-6.296167703112587e-05,1.0,1.0,0.4634484350681305
0.05256,0.48745089769363403,-6.29327041679062e-05,1.0,1.0,0.46319636702537537
0.05292,0.48741698265075684,-6.290408782660961e-05,1.0,1.0,0.46294429898262024
0.05328,0.48738375306129456,-6.292805483099073e-05,1.0,1.0,0.4626922011375427
0.05364,0.4873526990413666,-6.288477743510157e-05,1.0,1.0,0.4624401330947876
0.054000000000000006,0.48732224106788635,-6.29316273261793e-05,1.0,1.0,0.46218806505203247
0.054360000000000006,0.48729389905929565,-6.310760363703594e-05,1.0,1.0,0.46193596720695496
0.054720000000000005,0.4872691333293915,-6.293199112406e-05,1.0,1.0,0.46168389916419983
0.055080000000000004,0.4872388243675232,-6.283541733864695e-05,1.0,1.0,0.4614318013191223
0.05544,0.48721063137054443,-6.286188727244735e-05,1.0,1.0,0.4611797332763672
0.0558,0.4871860444545746,-6.275888154050335e-05,1.0,1.0,0.46092766523361206
0.05616,0.4871589243412018,-6.270987796597183e-05,1.0,1.0,0.46067556738853455
0.05652,0.48713383078575134,-6.270701851462945e-05,1.0,1.0,0.4604234993457794
0.05688000000000001,0.4871107339859009,-6.255214975681156e-05,1.0,1.0,0.4601714015007019
0.057240000000000006,0.48708659410476685,-6.26115215709433e-05,1.0,1.0,0.4599193334579468
0.057600000000000005,0.487062931060791,-6.252389721339568e-05,1.0,1.0,0.45966726541519165
0.057960000000000005,0.4870397448539734,-6.243984535103664e-05,1.0,1.0,0.45941516757011414
0.058320000000000004,0.48701703548431396,-6.236223271116614e-05,1.0,1.0,0.459163099527359
0.05868,0.48699328303337097,-6.24698877800256e-05,1.0,1.0,0.4589110016822815
0.05904,0.4869700074195862,-6.241587834665552e-05,1.0,1.0,0.45865893363952637
0.0594,0.4869486689567566,-6.234005559235811e-05,1.0,1.0,0.45840686559677124
0.05976,0.48692625761032104,-6.233325984794647e-05,1.0,1.0,0.4581547677516937
0.06012000000000001,0.48690277338027954,-6.231466250028461e-05,1.0,1.0,0.4579026997089386
0.060480000000000006,0.486881285905838,-6.229212885955349e-05,1.0,1.0,0.45765063166618347
0.060840000000000005,0.4868699312210083,-6.230142753338441e-05,1.0,1.0,0.45739853382110596
0.061200000000000004,0.4868490993976593,-6.228425627341494e-05,1.0,1.0,0.45714646577835083
0.061560000000000004,0.48682865500450134,-6.229677819646895e-05,1.0,1.0,0.4568943679332733
0.06192,0.48677706718444824,-6.380826380336657e-05,1.0,1.0,0.4566422998905182
0.06228,0.486719012260437,-6.376748933689669e-05,1.0,1.0,0.45639023184776306
0.06264,0.4866681396961212,-6.374603253789246e-05,1.0,1.0,0.45613813400268555
0.063,0.48661375045776367,-6.38304409221746e-05,1.0,1.0,0.4558860659599304
0.06336,0.48656341433525085,-6.381220009643584e-05,1.0,1.0,0.4556339681148529
0.06372,0.4865095913410187,-6.38186393189244e-05,1.0,1.0,0.4553819000720978
0.06408,0.4864613711833954,-6.379252590704709e-05,1.0,1.0,0.45512983202934265
0.06444,0.4864155650138855,-6.371956260409206e-05,1.0,1.0,0.45487773418426514
0.06480000000000001,0.4863661825656891,-6.371991912601516e-05,1.0,1.0,0.45462566614151
0.06516000000000001,0.48626965284347534,-6.520994793390855e-05,1.0,1.0,0.4543735682964325
0.06552000000000001,0.48616907000541687,-6.486229540314525e-05,1.0,1.0,0.45412150025367737
0.06588000000000001,0.48606598377227783,-6.481258606072515e-05,1.0,1.0,0.45386943221092224
0.06624000000000001,0.4859634339809418,-6.470921653090045e-05,1.0,1.0,0.4536173343658447
0.0666,0.4858689606189728,-6.462695455411449e-05,1.0,1.0,0.4533652663230896
0.06696,0.4857688248157501,-6.46144399070181e-05,1.0,1.0,0.4531131982803345
0.06732,0.4856722056865692,-6.453897367464378e-05,1.0,1.0,0.45286110043525696
0.06768,0.4855790138244629,-6.436443072743714e-05,1.0,1.0,0.45260903239250183
0.06804,0.48549219965934753,-6.430470239138231e-05,1.0,1.0,0.4523569345474243
0.0684,0.48540255427360535,-6.42160011921078e-05,1.0,1.0,0.4521048665046692
0.06876,0.48527711629867554,-6.550251418957487e-05,1.0,1.0,0.45185279846191406
0.06912,0.4851451814174652,-6.559836765518412e-05,1.0,1.0,0.45160070061683655
0.06948,0.4850143790245056,-6.556940206792206e-05,1.0,1.0,0.4513486325740814
0.06984,0.4848831593990326,-6.546853546751663e-05,1.0,1.0,0.4510965347290039
0.0702,0.48475006222724915,-6.543742347275838e-05,1.0,1.0,0.4508444666862488
0.07056,0.48462411761283875,-6.510300590889528e-05,1.0,1.0,0.45059239864349365
0.07092000000000001,0.484496146440506,-6.497925642179325e-05,1.0,1.0,0.45034030079841614
0.07128000000000001,0.48437073826789856,-6.495064008049667e-05,1.0,1.0,0.450088232755661
0.07164000000000001,0.4842493236064911,-6.489770748885348e-05,1.0,1.0,0.4498361349105835
0.07200000000000001,0.484130322933197,-6.487803329946473e-05,1.0,1.0,0.44958406686782837
0.07236000000000001,0.48397305607795715,-6.612127617700025e-05,1.0,1.0,0.44933199882507324
0.07272,0.483817458152771,-6.610911077586934e-05,1.0,1.0,0.4490799009799957
0.07308,0.4836619794368744,-6.612342258449644e-05,1.0,1.0,0.4488278329372406
0.07344,0.4835861623287201,-6.604008376598358e-05,1.0,1.0,0.4485757350921631
0.0738,0.4834412932395935,-6.62053280393593e-05,1.0,1.0,0.44832366704940796
0.07416,0.4832932949066162,-6.613701407331973e-05,1.0,1.0,0.44807159900665283
0.07452,0.48315122723579407,-6.594494334422052e-05,1.0,1.0,0.4478195011615753
0.07488,0.48301050066947937,-6.592956924578175e-05,1.0,1.0,0.4475674331188202
0.07524,0.48287108540534973,-6.58455173834227e-05,1.0,1.0,0.44731536507606506
0.0756,0.4827043116092682,-6.727151776431128e-05,1.0,1.0,0.44706326723098755
0.07596,0.48253339529037476,-6.721787212882191e-05,1.0,1.0,0.4468111991882324
0.07632,0.4823658764362335,-6.706979911541566e-05,1.0,1.0,0.4465591013431549
0.07668,0.48220619559288025,-6.695999763906002e-05,1.0,1.0,0.4463070333003998
0.07704000000000001,0.48204517364501953,-6.685234257020056e-05,1.0,1.0,0.44605496525764465
0.07740000000000001,0.4818858504295349,-6.68341017444618e-05,1.0,1.0,0.44580286741256714
0.07776000000000001,0.4817342162132263,-6.669389404123649e-05,1.0,1.0,0.445550799369812
0.07812000000000001,0.4815855920314789,-6.660340295638889e-05,1.0,1.0,0.4452987015247345
0.07848000000000001,0.4814399182796478,-6.636305624851957e-05,1.0,1.0,0.44504663348197937
0.07884000000000001,0.4813016951084137,-6.645211396971717e-05,1.0,1.0,0.44479456543922424
0.0792,0.4811120629310608,-6.767424929421395e-05,1.0,1.0,0.44454246759414673
0.07956,0.4809187054634094,-6.746644794475287e-05,1.0,1.0,0.4442903995513916
0.07992,0.4807262122631073,-6.747860606992617e-05,1.0,1.0,0.4440383017063141
0.08028,0.4805390238761902,-6.729047890985385e-05,1.0,1.0,0.44378623366355896
0.08064,0.48035556077957153,-6.721143290633336e-05,1.0,1.0,0.44353416562080383
0.081,0.4801787734031677,-6.706443673465401e-05,1.0,1.0,0.4432820677757263
0.08136,0.48000550270080566,-6.683731771772727e-05,1.0,1.0,0.4430299997329712
0.08172,0.4798356890678406,-6.668674177490175e-05,1.0,1.0,0.44277793169021606
0.08208,0.47966623306274414,-6.657121411990374e-05,1.0,1.0,0.44252583384513855
0.08244,0.479465514421463,-6.795680383220315e-05,1.0,1.0,0.4422737658023834
0.0828,0.47925683856010437,-6.791817577322945e-05,1.0,1.0,0.4420216679573059
0.08316000000000001,0.47905078530311584,-6.781302363378927e-05,1.0,1.0,0.4417695999145508
0.08352000000000001,0.4788488745689392,-6.770572508685291e-05,1.0,1.0,0.44151753187179565
0.08388000000000001,0.47875016927719116,-6.756265793228522e-05,1.0,1.0,0.44126543402671814
0.08424000000000001,0.47856175899505615,-6.75648043397814e-05,1.0,1.0,0.441013365983963
0.08460000000000001,0.4783785343170166,-6.750722241122276e-05,1.0,1.0,0.4407612681388855
0.08496000000000001,0.47819751501083374,-6.740028038620949e-05,1.0,1.0,0.44050920009613037
0.08532000000000001,0.4780215919017792,-6.727366417180747e-05,1.0,1.0,0.44025713205337524
0.08568,0.4778386354446411,-6.730263703502715e-05,1.0,1.0,0.44000503420829773
0.08604,0.4776186943054199,-6.859916902612895e-05,1.0,1.0,0.4397529661655426
0.0864,0.4773971736431122,-6.84764891047962e-05,1.0,1.0,0.4395008683204651
