Time (s),Potential (V),Current (A),Cycle,Exp,Applied potential (V)
0.0,0.485710471868515,-5.9423666243674234e-05,1.0,1.0,0.5
0.00036,0.48600128293037415,-5.8883950259769335e-05,1.0,1.0,0.49981996417045593
0.00072,0.48628634214401245,-5.885176142328419e-05,1.0,1.0,0.4996398985385895
0.00108,0.48657023906707764,-5.8886453189188614e-05,1.0,1.0,0.4994598627090454
0.00144,0.486845463514328,-5.886678263777867e-05,1.0,1.0,0.49927979707717896
0.0018000000000000002,0.48712122440338135,-5.885426435270347e-05,1.0,1.0,0.4990997612476349
0.00216,0.4873869717121124,-5.897622759221122e-05,1.0,1.0,0.49891969561576843
0.00252,0.4876444637775421,-5.9013782447436824e-05,1.0,1.0,0.49873965978622437
0.00288,0.48790132999420166,-5.899661482544616e-05,1.0,1.0,0.4985595941543579
0.0032400000000000003,0.48815006017684937,-5.8970861573470756e-05,1.0,1.0,0.49837955832481384
0.0036000000000000003,0.4883938133716583,-5.907601735088974e-05,1.0,1.0,0.4981994926929474
0.00396,0.4886297285556793,-5.914790745009668e-05,1.0,1.0,0.4980194568634033
0.00432,0.4888669550418854,-5.928203245275654e-05,1.0,1.0,0.49783939123153687
0.00468,0.48909497261047363,-5.922587661189027e-05,1.0,1.0,0.4976593554019928
0.00504,0.48931846022605896,-5.942259303992614e-05,1.0,1.0,0.49747928977012634
0.0054,0.48952844738960266,-5.950950435362756e-05,1.0,1.0,0.4972992539405823
0.00576,0.4897417724132538,-5.954634252702817e-05,1.0,1.0,0.4971191883087158
0.0061200000000000004,0.4899523854255676,-5.9532394516281784e-05,1.0,1.0,0.49693915247917175
0.0064800000000000005,0.4901573061943054,-5.965435775578953e-05,1.0,1.0,0.4967590868473053
0.006840000000000001,0.4903581142425537,-5.967689139652066e-05,1.0,1.0,0.49657905101776123
0.007200000000000001,0.49055495858192444,-5.9649351896950975e-05,1.0,1.0,0.4963989853858948
0.007560000000000001,0.49074938893318176,-5.9711583162425086e-05,1.0,1.0,0.4962189495563507
0.00792,0.49094295501708984,-5.9657220845110714e-05,1.0,1.0,0.49603888392448425
0.008280000000000001,0.4911326467990875,-5.965614764136262e-05,1.0,1.0,0.4958588480949402
0.00864,0.49131855368614197,-5.963039438938722e-05,1.0,1.0,0.49567878246307373
0.009000000000000001,0.49149927496910095,-5.9750211221398786e-05,1.0,1.0,0.49549874663352966
0.00936,0.4916764199733734,-5.9800284361699596e-05,1.0,1.0,0.4953186810016632
0.009720000000000001,0.4918440282344818,-5.980672358418815e-05,1.0,1.0,0.49513864517211914
0.01008,0.49196162819862366,-6.138616299722344e-05,1.0,1.0,0.4949585795402527
0.010440000000000001,0.4920724630355835,-6.137293530628085e-05,1.0,1.0,0.4947785437107086
0.0108,0.49218711256980896,-6.131534610176459e-05,1.0,1.0,0.49459847807884216
0.011160000000000002,0.49229496717453003,-6.138938624644652e-05,1.0,1.0,0.4944184422492981
0.01152,0.4924006760120392,-6.133752322057262e-05,1.0,1.0,0.49423837661743164
0.01188,0.49250727891921997,-6.122021295595914e-05,1.0,1.0,0.4940583407878876
0.012240000000000001,0.49260422587394714,-6.125884101493284e-05,1.0,1.0,0.4938782751560211
0.0126,0.4927007555961609,-6.133466376923025e-05,1.0,1.0,0.49369823932647705
0.012960000000000001,0.4928043484687805,-6.131105328677222e-05,1.0,1.0,0.4935181736946106
0.01332,0.4928984045982361,-6.135647709015757e-05,1.0,1.0,0.49333813786506653
0.013680000000000001,0.49299511313438416,-6.136220326879993e-05,1.0,1.0,0.4931580722332001
0.01404,0.4930838644504547,-6.136971205705777e-05,1.0,1.0,0.492978036403656
0.014400000000000001,0.49317535758018494,-6.131177360657603e-05,1.0,1.0,0.49279797077178955
0.01476,0.4932650327682495,-6.141334597487003e-05,1.0,1.0,0.4926179349422455
0.015120000000000001,0.49331679940223694,-6.282540562096983e-05,1.0,1.0,0.49243786931037903
0.01548,0.4933585524559021,-6.285044219112024e-05,1.0,1.0,0.49225783348083496
0.01584,0.4933994710445404,-6.281753303483129e-05,1.0,1.0,0.4920777678489685
0.016200000000000003,0.49343958497047424,-6.287082942435518e-05,1.0,1.0,0.49189773201942444
0.016560000000000002,0.4934804141521454,-6.288155418587849e-05,1.0,1.0,0.491717666387558
0.01692,0.4935189187526703,-6.289443263085559e-05,1.0,1.0,0.4915376305580139
0.01728,0.4935581684112549,-6.289121665759012e-05,1.0,1.0,0.49135759472846985
0.01764,0.4935951232910156,-6.281038076849654e-05,1.0,1.0,0.4911775290966034
0.018000000000000002,0.49363285303115845,-6.277497595874593e-05,1.0,1.0,0.4909974932670593
0.01836,0.4936698377132416,-6.283649418037385e-05,1.0,1.0,0.49081742763519287
0.01872,0.49370458722114563,-6.280787783907726e-05,1.0,1.0,0.4906373918056488
0.01908,0.4937386214733124,-6.288942677201703e-05,1.0,1.0,0.49045732617378235
0.019440000000000002,0.4937704801559448,-6.282469257712364e-05,1.0,1.0,0.4902772903442383
0.0198,0.49377310276031494,-6.429826316889375e-05,1.0,1.0,0.4900972247123718
0.02016,0.4937712252140045,-6.430577195715159e-05,1.0,1.0,0.48991718888282776
0.02052,0.4937678873538971,-6.426750042010099e-05,1.0,1.0,0.4897371232509613
0.020880000000000003,0.49375858902931213,-6.422208389267325e-05,1.0,1.0,0.48955708742141724
0.021240000000000002,0.4937479794025421,-6.425892206607386e-05,1.0,1.0,0.4893770217895508
0.0216,0.4937390685081482,-6.412265065591782e-05,1.0,1.0,0.4891969859600067
0.02196,0.49372735619544983,-6.416020187316462e-05,1.0,1.0,0.48901692032814026
0.022320000000000003,0.49371737241744995,-6.423924787668511e-05,1.0,1.0,0.4888368844985962
0.022680000000000002,0.4937090575695038,-6.416986434487626e-05,1.0,1.0,0.48865681886672974
0.02304,0.493694931268692,-6.426428444683552e-05,1.0,1.0,0.48847678303718567
0.0234,0.4936825633049011,-6.421850412152708e-05,1.0,1.0,0.4882967174053192
0.02376,0.49367645382881165,-6.42024097032845e-05,1.0,1.0,0.48811668157577515
0.024120000000000003,0.4936659634113312,-6.408044282579795e-05,1.0,1.0,0.4879366159439087
0.024480000000000002,0.4936511814594269,-6.414518429664895e-05,1.0,1.0,0.4877565801143646
0.02484,0.4935975968837738,-6.539485912071541e-05,1.0,1.0,0.48757651448249817
0.0252,0.49354058504104614,-6.535337161039934e-05,1.0,1.0,0.4873964786529541
0.025560000000000003,0.4934801757335663,-6.533942359965295e-05,1.0,1.0,0.48721641302108765
0.025920000000000002,0.4934224784374237,-6.523927731905133e-05,1.0,1.0,0.4870363771915436
0.02628,0.49336445331573486,-6.506294448627159e-05,1.0,1.0,0.4868563115596771
0.02664,0.493306040763855,-6.492703687399626e-05,1.0,1.0,0.48667627573013306
0.027000000000000003,0.49325183033943176,-6.499105802504346e-05,1.0,1.0,0.4864962100982666
0.027360000000000002,0.4932001829147339,-6.482581375166774e-05,1.0,1.0,0.48631617426872253
0.02772,0.4931495785713196,-6.466093327617273e-05,1.0,1.0,0.4861361086368561
0.02808,0.4930969774723053,-6.46784610580653e-05,1.0,1.0,0.485956072807312
0.028440000000000003,0.49304690957069397,-6.452788511523977e-05,1.0,1.0,0.48577600717544556
0.028800000000000003,0.4929993152618408,-6.444490281865001e-05,1.0,1.0,0.4855959713459015
0.029160000000000002,0.4929526746273041,-6.452609522966668e-05,1.0,1.0,0.48541590571403503
0.02952,0.49290698766708374,-6.448711064876989e-05,1.0,1.0,0.48523586988449097
0.02988,0.4928652048110962,-6.442487938329577e-05,1.0,1.0,0.4850558042526245
0.030240000000000003,0.49282124638557434,-6.448281783377752e-05,1.0,1.0,0.48487576842308044
0.030600000000000002,0.49277815222740173,-6.463589670602232e-05,1.0,1.0,0.484695702791214
0.03096,0.49273595213890076,-6.444097380153835e-05,1.0,1.0,0.4845156669616699
0.03132,0.49269458651542664,-6.43172170384787e-05,1.0,1.0,0.48433560132980347
0.03168,0.4926585257053375,-6.431471410905942e-05,1.0,1.0,0.4841555655002594
0.03204,0.4926171898841858,-6.43558450974524e-05,1.0,1.0,0.48397549986839294
0.032400000000000005,0.49257969856262207,-6.412944640032947e-05,1.0,1.0,0.4837954640388489
0.032760000000000004,0.49254143238067627,-6.413480878109112e-05,1.0,1.0,0.4836153984069824
0.033120000000000004,0.4925024211406708,-6.411656795535237e-05,1.0,1.0,0.48343536257743835
0.03348,0.4924612045288086,-6.415304960682988e-05,1.0,1.0,0.4832552969455719
0.03384,0.49242231249809265,-6.414017843781039e-05,1.0,1.0,0.48307526111602783
0.0342,0.4923856556415558,-6.412444054149091e-05,1.0,1.0,0.48289522528648376
0.03456,0.492349773645401,-6.401391874533147e-05,1.0,1.0,0.4827151596546173
0.03492,0.4923146069049835,-6.39842328382656e-05,1.0,1.0,0.48253512382507324
0.03528,0.49228161573410034,-6.39069767203182e-05,1.0,1.0,0.4823550581932068
0.035640000000000005,0.4922462999820709,-6.375926750479266e-05,1.0,1.0,0.4821750223636627
0.036000000000000004,0.4922131597995758,-6.361369742080569e-05,1.0,1.0,0.48199495673179626
0.03636,0.4921806752681732,-6.354395009111613e-05,1.0,1.0,0.4818149209022522
0.03672,0.49215033650398254,-6.349208706524223e-05,1.0,1.0,0.48163485527038574
0.03708,0.4921221137046814,-6.334223144222051e-05,1.0,1.0,0.4814548194408417
0.03744,0.4920944571495056,-6.335009675240144e-05,1.0,1.0,0.4812747538089752
0.0378,0.4920673668384552,-6.337978265946731e-05,1.0,1.0,0.48109471797943115
0.03816,0.49204081296920776,-6.3302883063443e-05,1.0,1.0,0.4809146523475647
0.038520000000000006,0.49201327562332153,-6.32653318461962e-05,1.0,1.0,0.48073461651802063
0.038880000000000005,0.4919847846031189,-6.329001189442351e-05,1.0,1.0,0.4805545508861542
0.039240000000000004,0.49196138978004456,-6.31244110991247e-05,1.0,1.0,0.4803745150566101
0.0396,0.49193695187568665,-6.318092346191406e-05,1.0,1.0,0.48019444942474365
0.03996,0.4919099807739258,-6.31372895441018e-05,1.0,1.0,0.4800144135951996
0.04032,0.49188655614852905,-6.308471347438172e-05,1.0,1.0,0.47983434796333313
0.04068,0.49186208844184875,-6.303892587311566e-05,1.0,1.0,0.47965431213378906
0.04104,0.4918411076068878,-6.303785630734637e-05,1.0,1.0,0.4794742465019226
0.0414,0.4918205440044403,-6.301603571046144e-05,1.0,1.0,0.47929421067237854
0.041760000000000005,0.4918003976345062,-6.299743836279958e-05,1.0,1.0,0.4791141450405121
0.042120000000000005,0.4917791485786438,-6.285759445745498e-05,1.0,1.0,0.478934109210968
0.042480000000000004,0.4917568266391754,-6.295845378190279e-05,1.0,1.0,0.47875404357910156
0.04284,0.49173644185066223,-6.279678927967325e-05,1.0,1.0,0.4785740077495575
0.0432,0.4917314052581787,-6.278105138335377e-05,1.0,1.0,0.47839394211769104
0.04356,0.49171000719070435,-6.282432877924293e-05,1.0,1.0,0.478213906288147
0.04392,0.4916890561580658,-6.271882011787966e-05,1.0,1.0,0.4780338406562805
0.04428,0.49167153239250183,-6.272346945479512e-05,1.0,1.0,0.47785380482673645
0.044640000000000006,0.4916543662548065,-6.274779298109934e-05,1.0,1.0,0.47767373919487
0.045000000000000005,0.4916360378265381,-6.261938688112423e-05,1.0,1.0,0.4774937033653259
0.045360000000000004,0.4916195273399353,-6.261581438593566e-05,1.0,1.0,0.4773136377334595
0.045720000000000004,0.4916018545627594,-6.264514377107844e-05,1.0,1.0,0.4771336019039154
0.04608,0.4915860593318939,-6.265372212510556e-05,1.0,1.0,0.47695353627204895
0.04644,0.4915705919265747,-6.263870454858989e-05,1.0,1.0,0.4767735004425049
0.0468,0.491555392742157,-6.272132304729894e-05,1.0,1.0,0.4765934348106384
0.04716,0.49153903126716614,-6.259328074520454e-05,1.0,1.0,0.47641339898109436
0.04752,0.4915214478969574,-6.259113433770835e-05,1.0,1.0,0.4762333333492279
0.047880000000000006,0.4915042519569397,-6.252317689359188e-05,1.0,1.0,0.47605329751968384
0.048240000000000005,0.4914843738079071,-6.269628647714853e-05,1.0,1.0,0.4758732318878174
0.048600000000000004,0.4914694130420685,-6.266874697757885e-05,1.0,1.0,0.4756931960582733
0.048960000000000004,0.49145326018333435,-6.265873525990173e-05,1.0,1.0,0.47551313042640686
0.04932,0.49143892526626587,-6.262869283091277e-05,1.0,1.0,0.4753330945968628
0.04968,0.4914248585700989,-6.251852755667642e-05,1.0,1.0,0.47515302896499634
0.05004,0.491409569978714,-6.257003406062722e-05,1.0,1.0,0.47497299313545227
0.0504,0.49139609932899475,-6.259686051635072e-05,1.0,1.0,0.4747929275035858
0.050760000000000007,0.4913843870162964,-6.260687223402783e-05,1.0,1.0,0.47461289167404175
0.051120000000000006,0.4913729131221771,-6.26354812993668e-05,1.0,1.0,0.4744328558444977
0.051480000000000005,0.4913601577281952,-6.263727118493989e-05,1.0,1.0,0.4742527902126312
0.051840000000000004,0.49134767055511475,-6.252711318666115e-05,1.0,1.0,0.47407275438308716
0.0522,0.4913354516029358,-6.251316517591476e-05,1.0,1.0,0.4738926887512207
0.05256,0.49132347106933594,-6.26365581410937e-05,1.0,1.0,0.47371265292167664
0.05292,0.49131321907043457,-6.26490727881901e-05,1.0,1.0,0.4735325872898102
0.05328,0.49130740761756897,-6.267912249313667e-05,1.0,1.0,0.4733525514602661
0.05364,0.4912838637828827,-6.273527105804533e-05,1.0,1.0,0.47317248582839966
0.054000000000000006,0.4912744164466858,-6.27377739874646e-05,1.0,1.0,0.4729924499988556
0.054360000000000006,0.49126362800598145,-6.275386840570718e-05,1.0,1.0,0.47281238436698914
0.054720000000000005,0.49125155806541443,-6.265801494009793e-05,1.0,1.0,0.47263234853744507
0.055080000000000004,0.4912397265434265,-6.260543887037784e-05,1.0,1.0,0.4724522829055786
0.05544,0.4912281334400177,-6.263155228225514e-05,1.0,1.0,0.47227224707603455
0.0558,0.4912182688713074,-6.268591823754832e-05,1.0,1.0,0.4720921814441681
0.05616,0.49117401242256165,-6.404360465239733e-05,1.0,1.0,0.471912145614624
0.05652,0.4911186397075653,-6.412014772649854e-05,1.0,1.0,0.47173207998275757
0.05688000000000001,0.49106284976005554,-6.396420212695375e-05,1.0,1.0,0.4715520441532135
0.057240000000000006,0.49100515246391296,-6.41133519820869e-05,1.0,1.0,0.47137197852134705
0.057600000000000005,0.49094414710998535,-6.409582420019433e-05,1.0,1.0,0.471191942691803
0.057960000000000005,0.4908888339996338,-6.398244295269251e-05,1.0,1.0,0.4710118770599365
0.058320000000000004,0.49083614349365234,-6.383401341736317e-05,1.0,1.0,0.47083184123039246
0.05868,0.49077996611595154,-6.387121538864449e-05,1.0,1.0,0.470651775598526
0.05904,0.490729421377182,-6.383436993928626e-05,1.0,1.0,0.47047173976898193
0.0594,0.49068138003349304,-6.367950845742598e-05,1.0,1.0,0.4702916741371155
0.05976,0.4906342923641205,-6.354144716169685e-05,1.0,1.0,0.4701116383075714
0.06012000000000001,0.4905896484851837,-6.359723920468241e-05,1.0,1.0,0.46993157267570496
0.060480000000000006,0.4905519485473633,-6.347242015181109e-05,1.0,1.0,0.4697515368461609
0.060840000000000005,0.49051347374916077,-6.346490408759564e-05,1.0,1.0,0.46957147121429443
0.061200000000000004,0.490430623292923,-6.487267091870308e-05,1.0,1.0,0.46939143538475037
0.061560000000000004,0.4903404116630554,-6.475034751929343e-05,1.0,1.0,0.4692113697528839
0.06192,0.49025198817253113,-6.469849176937714e-05,1.0,1.0,0.46903133392333984
0.06228,0.4902084469795227,-6.467774073826149e-05,1.0,1.0,0.4688512682914734
0.06264,0.4901226758956909,-6.473854591604322e-05,1.0,1.0,0.4686712324619293
0.063,0.49003562331199646,-6.465342448791489e-05,1.0,1.0,0.46849116683006287
0.06336,0.48995476961135864,-6.454362301155925e-05,1.0,1.0,0.4683111310005188
0.06372,0.4898740351200104,-6.446851330110803e-05,1.0,1.0,0.46813106536865234
0.06408,0.4897918999195099,-6.440019933506846e-05,1.0,1.0,0.4679510295391083
0.06444,0.4897128939628601,-6.439947901526466e-05,1.0,1.0,0.4677709639072418
0.06480000000000001,0.48963698744773865,-6.438660784624517e-05,1.0,1.0,0.46759092807769775
0.06516000000000001,0.4895671010017395,-6.432651571230963e-05,1.0,1.0,0.4674108624458313
0.06552000000000001,0.4894956052303314,-6.416807445930317e-05,1.0,1.0,0.46723082661628723
0.06588000000000001,0.4893999397754669,-6.560015754075721e-05,1.0,1.0,0.4670507609844208
0.06624000000000001,0.4893001914024353,-6.560909969266504e-05,1.0,1.0,0.4668707251548767
0.0666,0.4892054498195648,-6.549071258632466e-05,1.0,1.0,0.46669065952301025
0.06696,0.48910656571388245,-6.537482840940356e-05,1.0,1.0,0.4665106236934662
0.06732,0.48900365829467773,-6.543921335833147e-05,1.0,1.0,0.46633055806159973
0.06768,0.4889072775840759,-6.529936217702925e-05,1.0,1.0,0.46615052223205566
0.06804,0.4888158440589905,-6.51645241305232e-05,1.0,1.0,0.4659704864025116
0.0684,0.4887261986732483,-6.527826189994812e-05,1.0,1.0,0.46579042077064514
0.06876,0.48863688111305237,-6.515593850053847e-05,1.0,1.0,0.4656103849411011
0.06912,0.4885508120059967,-6.50768997729756e-05,1.0,1.0,0.4654303193092346
0.06948,0.48847097158432007,-6.517238944070414e-05,1.0,1.0,0.46525028347969055
0.06984,0.4883897006511688,-6.504721386590973e-05,1.0,1.0,0.4650702178478241
0.0702,0.4883100390434265,-6.502038741018623e-05,1.0,1.0,0.46489018201828003
0.07056,0.48817482590675354,-6.64481776766479e-05,1.0,1.0,0.4647101163864136
0.07092000000000001,0.488031804561615,-6.633158045588061e-05,1.0,1.0,0.4645300805568695
0.07128000000000001,0.48789313435554504,-6.62310776533559e-05,1.0,1.0,0.46435001492500305
0.07164000000000001,0.48775723576545715,-6.62697057123296e-05,1.0,1.0,0.464169979095459
0.07200000000000001,0.48762404918670654,-6.6179214627482e-05,1.0,1.0,0.46398991346359253
0.07236000000000001,0.4874950051307678,-6.611304706893861e-05,1.0,1.0,0.46380987763404846
0.07272,0.4873640537261963,-6.600932829314843e-05,1.0,1.0,0.463629812002182
0.07308,0.487240195274353,-6.590810517081991e-05,1.0,1.0,0.46344977617263794
0.07344,0.48711729049682617,-6.581725756404921e-05,1.0,1.0,0.4632697105407715
0.0738,0.4869968295097351,-6.57299897284247e-05,1.0,1.0,0.4630896747112274
0.07416,0.48688027262687683,-6.573177961399779e-05,1.0,1.0,0.46290960907936096
0.07452,0.4867660403251648,-6.577505700988695e-05,1.0,1.0,0.4627295732498169
0.07488,0.48665258288383484,-6.568099342985079e-05,1.0,1.0,0.46254950761795044
0.07524,0.48654139041900635,-6.559908797498792e-05,1.0,1.0,0.46236947178840637
0.0756,0.48639777302742004,-6.698145443806425e-05,1.0,1.0,0.4621894061565399
0.07596,0.48624202609062195,-6.694604962831363e-05,1.0,1.0,0.46200937032699585
0.07632,0.4860803782939911,-6.684876279905438e-05,1.0,1.0,0.4618293046951294
0.07668,0.485927939414978,-6.674968608422205e-05,1.0,1.0,0.4616492688655853
0.07704000000000001,0.48577702045440674,-6.657014455413446e-05,1.0,1.0,0.46146920323371887
0.07740000000000001,0.48563212156295776,-6.635661702603102e-05,1.0,1.0,0.4612891674041748
0.07776000000000001,0.48548561334609985,-6.634946475969627e-05,1.0,1.0,0.46110910177230835
0.07812000000000001,0.48534050583839417,-6.615453457925469e-05,1.0,1.0,0.4609290659427643
0.07848000000000001,0.48520880937576294,-6.602112989639863e-05,1.0,1.0,0.4607490003108978
0.07884000000000001,0.4850752353668213,-6.609373667743057e-05,1.0,1.0,0.46056896448135376
0.0792,0.48495036363601685,-6.594351725652814e-05,1.0,1.0,0.4603888988494873
0.07956,0.4848204553127289,-6.567419768543914e-05,1.0,1.0,0.46020886301994324
0.07992,0.4846976101398468,-6.567991658812389e-05,1.0,1.0,0.4600287973880768
0.08028,0.4845335781574249,-6.699504592688754e-05,1.0,1.0,0.4598487615585327
0.08064,0.48436683416366577,-6.700506492052227e-05,1.0,1.0,0.45966869592666626
0.081,0.48420190811157227,-6.690813461318612e-05,1.0,1.0,0.4594886600971222
0.08136,0.4840582311153412,-6.686378765152767e-05,1.0,1.0,0.45930859446525574
0.08172,0.48390093445777893,-6.67947533656843e-05,1.0,1.0,0.45912855863571167
0.08208,0.4837467670440674,-6.659983046120033e-05,1.0,1.0,0.4589484930038452
0.08244,0.48359420895576477,-6.654832395724952e-05,1.0,1.0,0.45876845717430115
0.0828,0.4834461510181427,-6.637557089561597e-05,1.0,1.0,0.4585883915424347
0.08316000000000001,0.4833025634288788,-6.632478471146896e-05,1.0,1.0,0.4584083557128906
0.08352000000000001,0.48315879702568054,-6.62829406792298e-05,1.0,1.0,0.45822829008102417
0.08388000000000001,0.4830194115638733,-6.605868111364543e-05,1.0,1.0,0.4580482542514801
0.08424000000000001,0.48288431763648987,-6.604187365155667e-05,1.0,1.0,0.45786818861961365
0.08460000000000001,0.48275190591812134,-6.578542524948716e-05,1.0,1.0,0.4576881527900696
0.08496000000000001,0.48262062668800354,-6.580366607522592e-05,1.0,1.0,0.4575081169605255
0.08532000000000001,0.4824678897857666,-6.705871055601165e-05,1.0,1.0,0.45732805132865906
0.08568,0.4823092222213745,-6.698216748191044e-05,1.0,1.0,0.457148015499115
0.08604,0.48215368390083313,-6.702079554088414e-05,1.0,1.0,0.45696794986724854
0.0864,0.4820011854171753,-6.68852444505319e-05,1.0,1.0,0.45678791403770447
