Time (s),Potential (V),Current (A),Cycle,Exp,Applied potential (V)
0.0,0.49082186818122864,-5.619610965368338e-05,1.0,1.0,0.5
0.00036,0.4910154938697815,-5.620934098260477e-05,1.0,1.0,0.49967584013938904
0.00072,0.49120375514030457,-5.6391392718069255e-05,1.0,1.0,0.49935171008110046
0.00108,0.4913882911205292,-5.6365999625995755e-05,1.0,1.0,0.4990275502204895
0.00144,0.4915691316127777,-5.650513048749417e-05,1.0,1.0,0.49870339035987854
0.0018000000000000002,0.4917493760585785,-5.649797822115943e-05,1.0,1.0,0.49837926030158997
0.00216,0.4919230341911316,-5.655341374222189e-05,1.0,1.0,0.498055100440979
0.00252,0.4920932352542877,-5.664104173774831e-05,1.0,1.0,0.49773097038269043
0.00288,0.49226003885269165,-5.672724000760354e-05,1.0,1.0,0.49740681052207947
0.0032400000000000003,0.49242353439331055,-5.6821303587639704e-05,1.0,1.0,0.4970826506614685
0.0036000000000000003,0.4925822913646698,-5.702087946701795e-05,1.0,1.0,0.49675852060317993
0.00396,0.49273785948753357,-5.698368477169424e-05,1.0,1.0,0.49643436074256897
0.00432,0.49288731813430786,-5.717753811040893e-05,1.0,1.0,0.496110200881958
0.00468,0.49303683638572693,-5.7268025557277724e-05,1.0,1.0,0.49578607082366943
0.00504,0.49318185448646545,-5.739714470109902e-05,1.0,1.0,0.49546191096305847
0.0054,0.49332550168037415,-5.7359589845873415e-05,1.0,1.0,0.4951377511024475
0.00576,0.49346327781677246,-5.745222370023839e-05,1.0,1.0,0.49481362104415894
0.0061200000000000004,0.4935998320579529,-5.74769037484657e-05,1.0,1.0,0.494489461183548
0.0064800000000000005,0.493733674287796,-5.749943375121802e-05,1.0,1.0,0.494165301322937
0.006840000000000001,0.49386635422706604,-5.763212902820669e-05,1.0,1.0,0.49384117126464844
0.007200000000000001,0.4939979016780853,-5.764607703895308e-05,1.0,1.0,0.4935170114040375
0.007560000000000001,0.49412378668785095,-5.777483602287248e-05,1.0,1.0,0.4931928813457489
0.00792,0.4942050576210022,-5.9294907259754837e-05,1.0,1.0,0.49286872148513794
0.008280000000000001,0.49426519870758057,-5.9343907196307555e-05,1.0,1.0,0.492544561624527
0.00864,0.49432721734046936,-5.942044663242996e-05,1.0,1.0,0.4922204315662384
0.009000000000000001,0.49439096450805664,-5.948840407654643e-05,1.0,1.0,0.49189627170562744
0.00936,0.49445492029190063,-5.953990694251843e-05,1.0,1.0,0.4915721118450165
0.009720000000000001,0.4945191442966461,-5.952595893177204e-05,1.0,1.0,0.4912479817867279
0.01008,0.4945850968360901,-5.9571022575255483e-05,1.0,1.0,0.49092382192611694
0.010440000000000001,0.4946075975894928,-6.0978785768384114e-05,1.0,1.0,0.490599662065506
0.0108,0.49462366104125977,-6.112828850746155e-05,1.0,1.0,0.4902755320072174
0.011160000000000002,0.49463942646980286,-6.10320785199292e-05,1.0,1.0,0.48995137214660645
0.01152,0.49465638399124146,-6.115332507761195e-05,1.0,1.0,0.48962724208831787
0.01188,0.494671493768692,-6.115440191933885e-05,1.0,1.0,0.4893030822277069
0.012240000000000001,0.4946848154067993,-6.097235018387437e-05,1.0,1.0,0.48897892236709595
0.0126,0.4946993589401245,-6.1121849284973e-05,1.0,1.0,0.4886547923088074
0.012960000000000001,0.4947136342525482,-6.103672785684466e-05,1.0,1.0,0.4883306324481964
0.01332,0.49469298124313354,-6.251745799090713e-05,1.0,1.0,0.48800647258758545
0.013680000000000001,0.49466824531555176,-6.255536573007703e-05,1.0,1.0,0.4876823425292969
0.01404,0.49463799595832825,-6.256717460928485e-05,1.0,1.0,0.4873581826686859
0.014400000000000001,0.4946128726005554,-6.260222289711237e-05,1.0,1.0,0.48703402280807495
0.01476,0.49458828568458557,-6.261366797843948e-05,1.0,1.0,0.4867098927497864
0.015120000000000001,0.4945641756057739,-6.262582610361278e-05,1.0,1.0,0.4863857328891754
0.01548,0.4945465326309204,-6.261331145651639e-05,1.0,1.0,0.48606160283088684
0.01584,0.4944766163825989,-6.392092473106459e-05,1.0,1.0,0.4857374429702759
0.016200000000000003,0.49440062046051025,-6.38679921394214e-05,1.0,1.0,0.4854132831096649
0.016560000000000002,0.4943276345729828,-6.387729081325233e-05,1.0,1.0,0.48508915305137634
0.01692,0.4942561089992523,-6.389302870957181e-05,1.0,1.0,0.4847649931907654
0.01728,0.4941829741001129,-6.383436993928626e-05,1.0,1.0,0.4844408333301544
0.01764,0.49410977959632874,-6.379145634127781e-05,1.0,1.0,0.48411670327186584
0.018000000000000002,0.4940395653247833,-6.379252590704709e-05,1.0,1.0,0.4837925434112549
0.01836,0.49393612146377563,-6.517203291878104e-05,1.0,1.0,0.4834683835506439
0.01872,0.49382275342941284,-6.517525616800413e-05,1.0,1.0,0.48314425349235535
0.01908,0.4937116503715515,-6.520887109218165e-05,1.0,1.0,0.4828200936317444
0.019440000000000002,0.4936087727546692,-6.510622188216075e-05,1.0,1.0,0.4824959337711334
0.0198,0.49350491166114807,-6.51144509902224e-05,1.0,1.0,0.48217180371284485
0.02016,0.49340465664863586,-6.494921399280429e-05,1.0,1.0,0.4818476438522339
0.02052,0.4933033585548401,-6.490164378192276e-05,1.0,1.0,0.4815235137939453
0.020880000000000003,0.49320709705352783,-6.49084395263344e-05,1.0,1.0,0.48119935393333435
0.021240000000000002,0.4930631220340729,-6.637807382503524e-05,1.0,1.0,0.4808751940727234
0.0216,0.492917537689209,-6.630654388573021e-05,1.0,1.0,0.4805510640144348
0.02196,0.4927748441696167,-6.621390639338642e-05,1.0,1.0,0.48022690415382385
0.022320000000000003,0.492636501789093,-6.616884638788179e-05,1.0,1.0,0.4799027442932129
0.022680000000000002,0.49249938130378723,-6.617814506171271e-05,1.0,1.0,0.4795786142349243
0.02304,0.49236947298049927,-6.604580994462594e-05,1.0,1.0,0.47925445437431335
0.0234,0.49223920702934265,-6.601004133699462e-05,1.0,1.0,0.4789302945137024
0.02376,0.4920829236507416,-6.722287798766047e-05,1.0,1.0,0.4786061644554138
0.024120000000000003,0.49192529916763306,-6.72200185363181e-05,1.0,1.0,0.47828200459480286
0.024480000000000002,0.4917738139629364,-6.707659485982731e-05,1.0,1.0,0.4779578745365143
0.02484,0.49162381887435913,-6.689025030937046e-05,1.0,1.0,0.4776337146759033
0.0252,0.49147680401802063,-6.680548540316522e-05,1.0,1.0,0.47730955481529236
0.025560000000000003,0.49133121967315674,-6.666349509032443e-05,1.0,1.0,0.4769854247570038
0.025920000000000002,0.49118250608444214,-6.658086931565776e-05,1.0,1.0,0.4766612648963928
0.02628,0.49104729294776917,-6.632800068473443e-05,1.0,1.0,0.47633710503578186
0.02664,0.49086061120033264,-6.762525299564004e-05,1.0,1.0,0.4760129749774933
0.027000000000000003,0.4906656742095947,-6.75651608617045e-05,1.0,1.0,0.4756888151168823
0.027360000000000002,0.49047309160232544,-6.745464634150267e-05,1.0,1.0,0.47536465525627136
0.02772,0.4902873635292053,-6.729298183927312e-05,1.0,1.0,0.4750405251979828
0.02808,0.4901053309440613,-6.716851203236729e-05,1.0,1.0,0.4747163653373718
0.028440000000000003,0.48992541432380676,-6.693460454698652e-05,1.0,1.0,0.47439223527908325
0.028800000000000003,0.4897460639476776,-6.69746586936526e-05,1.0,1.0,0.4740680754184723
0.029160000000000002,0.4895747900009155,-6.690813461318612e-05,1.0,1.0,0.47374391555786133
0.02952,0.4894039034843445,-6.683588435407728e-05,1.0,1.0,0.47341978549957275
0.02988,0.489236444234848,-6.678688805550337e-05,1.0,1.0,0.4730956256389618
0.030240000000000003,0.4890708029270172,-6.670426955679432e-05,1.0,1.0,0.47277146577835083
0.030600000000000002,0.4889114499092102,-6.664346437901258e-05,1.0,1.0,0.47244733572006226
0.03096,0.4887537956237793,-6.652328738709912e-05,1.0,1.0,0.4721231758594513
0.03132,0.4886007606983185,-6.635518366238102e-05,1.0,1.0,0.47179901599884033
0.03168,0.48844775557518005,-6.636662874370813e-05,1.0,1.0,0.47147488594055176
0.03204,0.48829934000968933,-6.618207407882437e-05,1.0,1.0,0.4711507260799408
0.032400000000000005,0.48815837502479553,-6.608443800359964e-05,1.0,1.0,0.47082656621932983
0.032760000000000004,0.4880186915397644,-6.602792564081028e-05,1.0,1.0,0.47050243616104126
0.033120000000000004,0.4878848195075989,-6.590417615370825e-05,1.0,1.0,0.4701782763004303
0.03348,0.4877505898475647,-6.590667908312753e-05,1.0,1.0,0.4698541462421417
0.03384,0.48761454224586487,-6.573749851668254e-05,1.0,1.0,0.46952998638153076
0.0342,0.4874841868877411,-6.567956006620079e-05,1.0,1.0,0.4692058265209198
0.03456,0.4873534142971039,-6.556832522619516e-05,1.0,1.0,0.4688816964626312
0.03492,0.4872267544269562,-6.548427336383611e-05,1.0,1.0,0.46855753660202026
0.03528,0.48710259795188904,-6.550538091687486e-05,1.0,1.0,0.4682333767414093
0.035640000000000005,0.4869764447212219,-6.545995711348951e-05,1.0,1.0,0.4679092466831207
0.036000000000000004,0.48685577511787415,-6.523677438963205e-05,1.0,1.0,0.46758508682250977
0.03636,0.48673751950263977,-6.525358185172081e-05,1.0,1.0,0.4672609269618988
0.03672,0.48662012815475464,-6.51266091153957e-05,1.0,1.0,0.46693679690361023
0.03708,0.4865080714225769,-6.495493289548904e-05,1.0,1.0,0.46661263704299927
0.03744,0.4863937199115753,-6.5037194872275e-05,1.0,1.0,0.4662885069847107
0.0378,0.4862816333770752,-6.499070150312036e-05,1.0,1.0,0.46596434712409973
0.03816,0.4861733019351959,-6.494420085800812e-05,1.0,1.0,0.46564018726348877
0.038520000000000006,0.4860701262950897,-6.48301065666601e-05,1.0,1.0,0.4653160572052002
0.038880000000000005,0.4859675168991089,-6.468775973189622e-05,1.0,1.0,0.46499189734458923
0.039240000000000004,0.4858699440956116,-6.45743784843944e-05,1.0,1.0,0.46466773748397827
0.0396,0.4857698082923889,-6.449569627875462e-05,1.0,1.0,0.4643436074256897
0.03996,0.4856761693954468,-6.437086994992569e-05,1.0,1.0,0.46401944756507874
0.04032,0.48557987809181213,-6.441593723138794e-05,1.0,1.0,0.4636952877044678
0.04068,0.4854870140552521,-6.431364454329014e-05,1.0,1.0,0.4633711576461792
0.04104,0.48539450764656067,-6.426464096875861e-05,1.0,1.0,0.46304699778556824
0.0414,0.4853038191795349,-6.420455611078069e-05,1.0,1.0,0.4627228379249573
0.041760000000000005,0.48521342873573303,-6.422423030016944e-05,1.0,1.0,0.4623987078666687
0.042120000000000005,0.48512935638427734,-6.41373117105104e-05,1.0,1.0,0.46207454800605774
0.042480000000000004,0.4850499629974365,-6.403001316357404e-05,1.0,1.0,0.46175041794776917
0.04284,0.48498424887657166,-6.393523653969169e-05,1.0,1.0,0.4614262580871582
0.0432,0.4849092364311218,-6.400998972821981e-05,1.0,1.0,0.46110209822654724
0.04356,0.48483121395111084,-6.398995901690796e-05,1.0,1.0,0.46077796816825867
0.04392,0.484754741191864,-6.403215957107022e-05,1.0,1.0,0.4604538083076477
0.04428,0.48468130826950073,-6.396599201252684e-05,1.0,1.0,0.46012964844703674
0.044640000000000006,0.4846078157424927,-6.39842328382656e-05,1.0,1.0,0.45980551838874817
0.045000000000000005,0.48454031348228455,-6.393058720277622e-05,1.0,1.0,0.4594813585281372
0.045360000000000004,0.4844741225242615,-6.375675729941577e-05,1.0,1.0,0.45915719866752625
0.045720000000000004,0.48440778255462646,-6.369667244143784e-05,1.0,1.0,0.45883306860923767
0.04608,0.4843382239341736,-6.366663001244888e-05,1.0,1.0,0.4585089087486267
0.04644,0.4842715859413147,-6.367092282744125e-05,1.0,1.0,0.45818477869033813
0.0468,0.48420625925064087,-6.363121792674065e-05,1.0,1.0,0.4578606188297272
0.04716,0.4841422438621521,-6.360439874697477e-05,1.0,1.0,0.4575364589691162
0.04752,0.48407796025276184,-6.363658758345991e-05,1.0,1.0,0.45721232891082764
0.047880000000000006,0.48401498794555664,-6.354895594995469e-05,1.0,1.0,0.4568881690502167
0.048240000000000005,0.48395928740501404,-6.346275768009946e-05,1.0,1.0,0.4565640091896057
0.048600000000000004,0.4839031994342804,-6.34452371741645e-05,1.0,1.0,0.45623987913131714
0.048960000000000004,0.4838482141494751,-6.350246258080006e-05,1.0,1.0,0.4559157192707062
0.04932,0.4837912917137146,-6.34584721410647e-05,1.0,1.0,0.4555915594100952
0.04968,0.48373550176620483,-6.336654769256711e-05,1.0,1.0,0.45526742935180664
0.05004,0.4836823642253876,-6.32653318461962e-05,1.0,1.0,0.4549432694911957
0.0504,0.4836302399635315,-6.338299863273278e-05,1.0,1.0,0.4546191394329071
0.050760000000000007,0.48357918858528137,-6.32774899713695e-05,1.0,1.0,0.45429497957229614
0.051120000000000006,0.48352915048599243,-6.329859024845064e-05,1.0,1.0,0.4539708197116852
0.051480000000000005,0.4834785759449005,-6.3201310695149e-05,1.0,1.0,0.4536466896533966
0.051840000000000004,0.48343053460121155,-6.312512414297089e-05,1.0,1.0,0.45332252979278564
0.0522,0.4833849370479584,-6.318056693999097e-05,1.0,1.0,0.4529983699321747
0.05256,0.48333874344825745,-6.307147850748152e-05,1.0,1.0,0.4526742398738861
0.05292,0.4833146333694458,-6.310617027338594e-05,1.0,1.0,0.45235008001327515
0.05328,0.4832322299480438,-6.47160122753121e-05,1.0,1.0,0.4520259201526642
0.05364,0.48313799500465393,-6.471315282396972e-05,1.0,1.0,0.4517017900943756
0.054000000000000006,0.4830441474914551,-6.467774073826149e-05,1.0,1.0,0.45137763023376465
0.054360000000000006,0.4829521179199219,-6.452859815908596e-05,1.0,1.0,0.4510534703731537
0.054720000000000005,0.48286646604537964,-6.454147660406306e-05,1.0,1.0,0.4507293403148651
0.055080000000000004,0.48278701305389404,-6.435477553168312e-05,1.0,1.0,0.45040518045425415
0.05544,0.48270463943481445,-6.432973896153271e-05,1.0,1.0,0.4500810503959656
0.0558,0.4826163649559021,-6.440985453082249e-05,1.0,1.0,0.4497568905353546
0.05616,0.4824952483177185,-6.585445953533053e-05,1.0,1.0,0.44943273067474365
0.05652,0.482369065284729,-6.580116314580664e-05,1.0,1.0,0.4491086006164551
0.05688000000000001,0.4822438955307007,-6.577684689546004e-05,1.0,1.0,0.4487844407558441
0.057240000000000006,0.4821227192878723,-6.560015754075721e-05,1.0,1.0,0.44846028089523315
0.057600000000000005,0.48200395703315735,-6.552612467203289e-05,1.0,1.0,0.4481361508369446
0.057960000000000005,0.481887549161911,-6.550144462380558e-05,1.0,1.0,0.4478119909763336
0.058320000000000004,0.48177194595336914,-6.543921335833147e-05,1.0,1.0,0.44748783111572266
0.05868,0.4816315770149231,-6.69496221235022e-05,1.0,1.0,0.4471637010574341
0.05904,0.4814864993095398,-6.671320443274453e-05,1.0,1.0,0.4468395411968231
0.0594,0.48134732246398926,-6.66534760966897e-05,1.0,1.0,0.44651541113853455
0.05976,0.4812169373035431,-6.651649164268747e-05,1.0,1.0,0.4461912512779236
0.06012000000000001,0.4810861349105835,-6.632728764088824e-05,1.0,1.0,0.4458670914173126
0.060480000000000006,0.480957955121994,-6.627721450058743e-05,1.0,1.0,0.44554296135902405
0.060840000000000005,0.4808247983455658,-6.616347673116252e-05,1.0,1.0,0.4452188014984131
0.061200000000000004,0.4807003140449524,-6.624108937103301e-05,1.0,1.0,0.4448946416378021
0.061560000000000004,0.4805271327495575,-6.751902401447296e-05,1.0,1.0,0.44457051157951355
0.06192,0.4803484380245209,-6.737953663105145e-05,1.0,1.0,0.4442463517189026
0.06228,0.480171799659729,-6.72450551064685e-05,1.0,1.0,0.4439221918582916
0.06264,0.4799956679344177,-6.715778727084398e-05,1.0,1.0,0.44359806180000305
0.063,0.4798245131969452,-6.702580867568031e-05,1.0,1.0,0.4432739019393921
0.06336,0.4796537756919861,-6.694140029139817e-05,1.0,1.0,0.44294974207878113
0.06372,0.47948944568634033,-6.682229286525398e-05,1.0,1.0,0.44262561202049255
0.06408,0.4792877435684204,-6.823506555519998e-05,1.0,1.0,0.4423014521598816
0.06444,0.47907957434654236,-6.811023922637105e-05,1.0,1.0,0.441977322101593
0.06480000000000001,0.4788801074028015,-6.816353561589494e-05,1.0,1.0,0.44165316224098206
0.06516000000000001,0.478687584400177,-6.801760900998488e-05,1.0,1.0,0.4413290023803711
0.06552000000000001,0.4784943759441376,-6.79249715176411e-05,1.0,1.0,0.4410048723220825
0.06588000000000001,0.4783065617084503,-6.763920100638643e-05,1.0,1.0,0.44068071246147156
0.06624000000000001,0.47812244296073914,-6.74249604344368e-05,1.0,1.0,0.4403565526008606
0.0666,0.4779389798641205,-6.732767360517755e-05,1.0,1.0,0.440032422542572
0.06696,0.47771555185317993,-6.863958697067574e-05,1.0,1.0,0.43970826268196106
0.06732,0.4774935841560364,-6.866425974294543e-05,1.0,1.0,0.4393841028213501
0.06768,0.47727301716804504,-6.85018821968697e-05,1.0,1.0,0.4390599727630615
0.06804,0.4770583510398865,-6.840102287242189e-05,1.0,1.0,0.43873581290245056
0.0684,0.47684797644615173,-6.834021769464016e-05,1.0,1.0,0.438411682844162
0.06876,0.47664177417755127,-6.81685414747335e-05,1.0,1.0,0.438087522983551
0.06912,0.4764396846294403,-6.810237391619012e-05,1.0,1.0,0.43776336312294006
0.06948,0.4762115180492401,-6.941606989130378e-05,1.0,1.0,0.4374392330646515
0.06984,0.4759834408760071,-6.929553637746722e-05,1.0,1.0,0.4371150732040405
0.0702,0.47575536370277405,-6.918072904227301e-05,1.0,1.0,0.43679091334342957
0.07056,0.4755273163318634,-6.909953663125634e-05,1.0,1.0,0.436466783285141
0.07092000000000001,0.4753023386001587,-6.88377331243828e-05,1.0,1.0,0.43614262342453003
0.07128000000000001,0.4750863313674927,-6.85408667777665e-05,1.0,1.0,0.43581846356391907
0.07164000000000001,0.4748761057853699,-6.849115015938878e-05,1.0,1.0,0.4354943335056305
0.07200000000000001,0.47462043166160583,-6.970435060793534e-05,1.0,1.0,0.43517017364501953
0.07236000000000001,0.474360853433609,-6.968181696720421e-05,1.0,1.0,0.43484604358673096
0.07272,0.47410497069358826,-6.946042412891984e-05,1.0,1.0,0.43452188372612
0.07308,0.4738541543483734,-6.934739940334111e-05,1.0,1.0,0.43419772386550903
0.07344,0.4736098349094391,-6.929625669727102e-05,1.0,1.0,0.43387359380722046
0.0738,0.47336888313293457,-6.923866749275476e-05,1.0,1.0,0.4335494339466095
0.07416,0.4731311798095703,-6.91953900968656e-05,1.0,1.0,0.43322527408599854
0.07452,0.4728967547416687,-6.897578714415431e-05,1.0,1.0,0.43290114402770996
0.07488,0.4726233184337616,-7.028519758023322e-05,1.0,1.0,0.432576984167099
0.07524,0.4723508954048157,-7.017646566964686e-05,1.0,1.0,0.43225282430648804
0.0756,0.4720838665962219,-7.00688106007874e-05,1.0,1.0,0.43192869424819946
0.07596,0.4718206822872162,-7.00047894497402e-05,1.0,1.0,0.4316045343875885
0.07632,0.47156572341918945,-6.988854875089601e-05,1.0,1.0,0.43128037452697754
0.07668,0.4713188409805298,-6.965284410398453e-05,1.0,1.0,0.43095624446868896
0.07704000000000001,0.47107386589050293,-6.950584793230519e-05,1.0,1.0,0.430632084608078
0.07740000000000001,0.4707946479320526,-7.070115680107847e-05,1.0,1.0,0.43030795454978943
0.07776000000000001,0.47051501274108887,-7.065466343192384e-05,1.0,1.0,0.42998379468917847
0.07812000000000001,0.47023943066596985,-7.026481034699827e-05,1.0,1.0,0.4296596348285675
0.07848000000000001,0.46997085213661194,-7.021259079920128e-05,1.0,1.0,0.42933550477027893
0.07884000000000001,0.4697076082229614,-7.002874917816371e-05,1.0,1.0,0.42901134490966797
0.0792,0.46945109963417053,-6.977659359108657e-05,1.0,1.0,0.428687185049057
0.07956,0.46919819712638855,-6.96442584739998e-05,1.0,1.0,0.42836305499076843
0.07992,0.46895185112953186,-6.951156683498994e-05,1.0,1.0,0.42803889513015747
0.08028,0.4686788022518158,-7.085208926582709e-05,1.0,1.0,0.4277147352695465
0.08064,0.4683961570262909,-7.06975843058899e-05,1.0,1.0,0.42739060521125793
0.081,0.46812066435813904,-7.053806621115655e-05,1.0,1.0,0.427066445350647
0.08136,0.46785968542099,-7.028984691714868e-05,1.0,1.0,0.4267423152923584
0.08172,0.46760088205337524,-7.006487430771813e-05,1.0,1.0,0.42641815543174744
0.08208,0.46734872460365295,-6.995614239713177e-05,1.0,1.0,0.4260939955711365
0.08244,0.4670940935611725,-6.983811181271449e-05,1.0,1.0,0.4257698655128479
0.0828,0.46679937839508057,-7.10445165168494e-05,1.0,1.0,0.42544570565223694
0.08316000000000001,0.46650004386901855,-7.08002335159108e-05,1.0,1.0,0.425121545791626
0.08352000000000001,0.466211199760437,-7.055093738017604e-05,1.0,1.0,0.4247974157333374
0.08388000000000001,0.4659265875816345,-7.051445572869852e-05,1.0,1.0,0.42447325587272644
0.08424000000000001,0.46565064787864685,-7.033133442746475e-05,1.0,1.0,0.4241490960121155
0.08460000000000001,0.46537718176841736,-7.018791075097397e-05,1.0,1.0,0.4238249659538269
0.08496000000000001,0.4651106297969818,-6.99904776411131e-05,1.0,1.0,0.42350080609321594
0.08532000000000001,0.46486300230026245,-6.99014199199155e-05,1.0,1.0,0.42317667603492737
0.08568,0.46456608176231384,-7.115503103705123e-05,1.0,1.0,0.4228525161743164
0.08604,0.4642646014690399,-7.108027784852311e-05,1.0,1.0,0.42252835631370544
0.0864,0.4639706015586853,-7.082025695126504e-05,1.0,1.0,0.42220422625541687
